#                                                                     
# $$\                                                                 
# $$ |                                                                
# $$ |     $$\   $$\ $$$$$$\$$$$\   $$$$$$\  $$$$$$$\                 
# $$ |     $$ |  $$ |$$  _$$  _$$\ $$  __$$\ $$  __$$\                
# $$ |     $$ |  $$ |$$ / $$ / $$ |$$$$$$$$ |$$ |  $$ |               
# $$ |     $$ |  $$ |$$ | $$ | $$ |$$   ____|$$ |  $$ |               
# $$$$$$$$\\$$$$$$  |$$ | $$ | $$ |\$$$$$$$\ $$ |  $$ |               
# \________|\______/ \__| \__| \__| \_______|\__|  \__|               
#                                                                     
#                   Fork Lumen 2.1.0                                  
#                  Branch is bug-fixes                                
#        MPI+OpenMP+SLK+SLEPC+HDF5_MPI_IO Build                       
#               http://www.lumen-code.org                             
#
# Absorption @ Q(1):   1.00000000      0.00000000      0.00000000    [q->0 direction]
#
# [ X ] Hartree size                              :  1
# [GEN] GF Energies                               : Perdew, Burke & Ernzerhof(X)+Perdew, Burke & Ernzerhof(C)
# [GEN] Green`s Function                          : T-ordered
#
# [GEN] Gauge                                     : Length
# [GEN] [r,Vnl] included                          : yes
#
#    E[1] [eV]          Im(eps)            Re(eps)            Im(eps_o)          Re(eps_o)
#
        5.000000           0.547230           2.024404           0.547230           2.024405
        5.037593           0.580435           2.069302           0.580435           2.069302
        5.075188           0.622068           2.108176           0.622068           2.108176
        5.112782           0.672552           2.141230           0.672552           2.141231
        5.150376           0.733321           2.162180           0.733322           2.162180
        5.187970           0.795960           2.162586           0.795960           2.162586
        5.225564           0.846483           2.145053           0.846483           2.145053
        5.263157           0.877677           2.120657           0.877677           2.120657
        5.300752           0.889653           2.101642           0.889653           2.101642
        5.338346           0.890909           2.098609           0.890910           2.098610
        5.375940           0.893110           2.110618           0.893110           2.110618
        5.413534           0.898139           2.135506           0.898138           2.135505
        5.451128           0.914511           2.177161           0.914510           2.177161
        5.488721           0.955505           2.225537           0.955505           2.225536
        5.526316           1.019568           2.264294           1.019567           2.264294
        5.563910           1.098934           2.285476           1.098934           2.285475
        5.601503           1.184685           2.282086           1.184685           2.282086
        5.639097           1.259833           2.254781           1.259833           2.254781
        5.676692           1.316853           2.219758           1.316852           2.219758
        5.714285           1.364679           2.182743           1.364679           2.182743
        5.751880           1.396181           2.138021           1.396182           2.138021
        5.789474           1.399188           2.107664           1.399189           2.107664
        5.827067           1.400462           2.114730           1.400462           2.114730
        5.864661           1.427739           2.140561           1.427739           2.140561
        5.902255           1.470911           2.165109           1.470910           2.165108
        5.939849           1.523705           2.203237           1.523706           2.203237
        5.977444           1.615729           2.257090           1.615728           2.257090
        6.015037           1.762652           2.290656           1.762652           2.290656
        6.052631           1.940674           2.271835           1.940675           2.271835
        6.090225           2.122205           2.207420           2.122205           2.207420
        6.127820           2.317325           2.099366           2.317324           2.099366
        6.165413           2.511316           1.908360           2.511316           1.908360
        6.203007           2.635528           1.631853           2.635528           1.631853
        6.240601           2.649204           1.337830           2.649204           1.337830
        6.278195           2.593971           1.087952           2.593971           1.087951
        6.315789           2.517423           0.860874           2.517423           0.860874
        6.353383           2.392455           0.630322           2.392455           0.630323
        6.390977           2.188785           0.441076           2.188786           0.441076
        6.428571           1.947907           0.346222           1.947907           0.346222
        6.466165           1.732763           0.336954           1.732763           0.336954
        6.503759           1.567409           0.369702           1.567409           0.369702
        6.541353           1.440475           0.415000           1.440475           0.415000
        6.578947           1.337992           0.467190           1.337992           0.467190
        6.616541           1.260008           0.528586           1.260008           0.528586
        6.654135           1.210194           0.588669           1.210194           0.588669
        6.691729           1.180492           0.640376           1.180492           0.640376
        6.729323           1.169004           0.679512           1.169004           0.679512
        6.766917           1.164096           0.698215           1.164096           0.698215
        6.804511           1.154320           0.704118           1.154320           0.704118
        6.842104           1.138151           0.703835           1.138151           0.703835
        6.879699           1.116517           0.703768           1.116517           0.703768
        6.917293           1.093785           0.703781           1.093785           0.703781
        6.954887           1.067671           0.702774           1.067670           0.702774
        6.992481           1.035798           0.704519           1.035798           0.704519
        7.030074           1.001112           0.715629           1.001112           0.715629
        7.067669           0.972589           0.736828           0.972589           0.736828
        7.105263           0.955608           0.759905           0.955608           0.759905
        7.142857           0.943658           0.777258           0.943658           0.777258
        7.180451           0.929816           0.794809           0.929816           0.794809
        7.218045           0.920271           0.819067           0.920271           0.819067
        7.255639           0.922752           0.844809           0.922752           0.844810
        7.293232           0.935961           0.865161           0.935961           0.865161
        7.330826           0.958629           0.876032           0.958629           0.876032
        7.368421           0.984234           0.872903           0.984234           0.872903
        7.406014           1.010852           0.860185           1.010852           0.860185
        7.443608           1.040506           0.826963           1.040506           0.826963
        7.481203           1.049349           0.767958           1.049349           0.767958
        7.518797           1.023286           0.707257           1.023286           0.707257
        7.556391           0.971730           0.665257           0.971730           0.665257
        7.593984           0.910928           0.651793           0.910928           0.651793
        7.631578           0.861477           0.664135           0.861477           0.664135
        7.669173           0.834572           0.684651           0.834572           0.684651
        7.706767           0.825313           0.696230           0.825313           0.696230
        7.744360           0.820064           0.688496           0.820064           0.688496
        7.781955           0.796734           0.666238           0.796734           0.666238
        7.819549           0.750500           0.656127           0.750500           0.656127
        7.857142           0.704264           0.669854           0.704264           0.669854
        7.894736           0.671921           0.694209           0.671921           0.694209
        7.932330           0.649627           0.718392           0.649627           0.718392
        7.969924           0.633368           0.741904           0.633368           0.741904
        8.007519           0.623076           0.763034           0.623076           0.763034
        8.045113           0.616431           0.779302           0.616431           0.779301
        8.082706           0.608402           0.789214           0.608402           0.789214
        8.120299           0.592937           0.798953           0.592937           0.798953
        8.157894           0.575123           0.817246           0.575123           0.817246
        8.195488           0.563351           0.842317           0.563351           0.842317
        8.233082           0.560209           0.869124           0.560209           0.869125
        8.270677           0.565501           0.892228           0.565501           0.892228
        8.308270           0.573739           0.907999           0.573739           0.907999
        8.345864           0.580893           0.921036           0.580893           0.921036
        8.383458           0.592119           0.932879           0.592119           0.932879
        8.421052           0.607061           0.936658           0.607061           0.936658
        8.458646           0.619613           0.931509           0.619613           0.931509
        8.496240           0.625607           0.917933           0.625607           0.917933
        8.533834           0.618079           0.901385           0.618079           0.901385
        8.571428           0.599277           0.892635           0.599277           0.892635
        8.609021           0.577786           0.894604           0.577786           0.894604
        8.646616           0.558817           0.903958           0.558817           0.903958
        8.684210           0.542540           0.917123           0.542540           0.917123
        8.721804           0.527268           0.934425           0.527268           0.934425
        8.759398           0.515723           0.958771           0.515723           0.958771
        8.796992           0.514078           0.986498           0.514078           0.986498
        8.834586           0.520174           1.009971           0.520174           1.009971
        8.872180           0.528202           1.028951           0.528202           1.028951
        8.909773           0.536198           1.046417           0.536198           1.046417
        8.947368           0.545781           1.065557           0.545781           1.065557
        8.984962           0.561517           1.084623           0.561517           1.084623
        9.022555           0.581326           1.098026           0.581326           1.098026
        9.060150           0.599327           1.108149           0.599326           1.108149
        9.097744           0.618739           1.121240           0.618739           1.121240
        9.135338           0.646603           1.133977           0.646603           1.133977
        9.172933           0.681846           1.139582           0.681846           1.139582
        9.210526           0.721391           1.136729           0.721391           1.136729
        9.248120           0.765865           1.122013           0.765865           1.122013
        9.285713           0.808221           1.088043           0.808221           1.088043
        9.323307           0.834679           1.037766           0.834679           1.037766
        9.360902           0.840061           0.984873           0.840061           0.984873
        9.398496           0.830651           0.938173           0.830651           0.938173
        9.436090           0.810839           0.899211           0.810839           0.899211
        9.473684           0.783107           0.872006           0.783107           0.872006
        9.511277           0.756831           0.860412           0.756830           0.860413
        9.548872           0.744953           0.855915           0.744953           0.855915
        9.586466           0.743378           0.837983           0.743378           0.837983
        9.624060           0.728608           0.806625           0.728608           0.806625
        9.661654           0.697428           0.781629           0.697428           0.781629
        9.699247           0.661264           0.769016           0.661264           0.769016
        9.736841           0.626079           0.765151           0.626079           0.765151
        9.774436           0.591958           0.768090           0.591958           0.768090
        9.812029           0.561297           0.777955           0.561297           0.777955
        9.849624           0.535823           0.791391           0.535823           0.791391
        9.887218           0.513395           0.805973           0.513395           0.805973
        9.924811           0.491940           0.823825           0.491940           0.823825
        9.962406           0.474873           0.847212           0.474873           0.847212
        9.999999           0.465766           0.872862           0.465766           0.872862
        10.03759           0.463895           0.896678           0.463895           0.896678
        10.07519           0.467222           0.916792           0.467222           0.916793
        10.11278           0.473845           0.931463           0.473845           0.931463
        10.15038           0.479088           0.940458           0.479088           0.940458
        10.18797           0.480512           0.949228           0.480512           0.949228
        10.22556           0.483036           0.961369           0.483036           0.961369
        10.26316           0.490704           0.973004           0.490704           0.973004
        10.30075           0.501219           0.979996           0.501219           0.979996
        10.33835           0.511421           0.982825           0.511421           0.982825
        10.37594           0.520803           0.982403           0.520803           0.982403
        10.41353           0.528071           0.978743           0.528071           0.978743
        10.45113           0.532481           0.973972           0.532481           0.973972
        10.48872           0.535917           0.968033           0.535917           0.968033
        10.52631           0.536196           0.958780           0.536196           0.958780
        10.56391           0.529828           0.949511           0.529828           0.949511
        10.60150           0.518548           0.944626           0.518548           0.944626
        10.63910           0.505469           0.945475           0.505469           0.945475
        10.67669           0.493926           0.951815           0.493926           0.951815
        10.71428           0.485255           0.960633           0.485255           0.960633
        10.75188           0.477805           0.971975           0.477805           0.971975
        10.78947           0.474381           0.987247           0.474381           0.987247
        10.82707           0.477523           1.002289           0.477523           1.002289
        10.86466           0.484075           1.013957           0.484075           1.013957
        10.90225           0.491988           1.023623           0.491988           1.023623
        10.93985           0.501965           1.031797           0.501965           1.031797
        10.97744           0.514666           1.037513           0.514666           1.037513
        11.01504           0.529540           1.038198           0.529540           1.038198
        11.05263           0.542423           1.032511           0.542423           1.032511
        11.09022           0.550084           1.024553           0.550084           1.024553
        11.12782           0.555497           1.017424           0.555497           1.017424
        11.16541           0.559970           1.008896           0.559970           1.008896
        11.20301           0.561129           0.999208           0.561129           0.999208
        11.24060           0.559884           0.990779           0.559884           0.990779
        11.27819           0.557690           0.981769           0.557690           0.981768
        11.31579           0.551029           0.971857           0.551029           0.971857
        11.35338           0.538989           0.965631           0.538989           0.965630
        11.39098           0.525198           0.966450           0.525198           0.966450
        11.42857           0.514932           0.973439           0.514932           0.973439
        11.46616           0.510110           0.981942           0.510110           0.981942
        11.50376           0.508636           0.989001           0.508636           0.989001
        11.54135           0.508618           0.994272           0.508618           0.994272
        11.57895           0.508652           0.997494           0.508652           0.997494
        11.61654           0.506377           0.999877           0.506377           0.999877
        11.65413           0.502151           1.005393           0.502151           1.005393
        11.69173           0.500873           1.014641           0.500873           1.014641
        11.72932           0.503708           1.022971           0.503708           1.022971
        11.76692           0.507464           1.029318           0.507464           1.029318
        11.80451           0.511855           1.035334           0.511855           1.035334
        11.84210           0.518081           1.040193           0.518081           1.040193
        11.87970           0.524736           1.042006           0.524736           1.042006
        11.91729           0.529034           1.041703           0.529034           1.041703
        11.95489           0.530823           1.041924           0.530823           1.041924
        11.99248           0.531188           1.043437           0.531188           1.043437
        12.03007           0.529942           1.047160           0.529942           1.047160
        12.06767           0.529034           1.055638           0.529034           1.055639
        12.10526           0.532996           1.067778           0.532996           1.067778
        12.14286           0.542662           1.079129           0.542662           1.079129
        12.18045           0.555855           1.087833           0.555855           1.087833
        12.21804           0.571084           1.093454           0.571084           1.093454
        12.25564           0.587106           1.097583           0.587106           1.097583
        12.29323           0.607816           1.100541           0.607816           1.100541
        12.33083           0.633386           1.094881           0.633386           1.094881
        12.36842           0.654451           1.078613           0.654451           1.078613
        12.40601           0.667485           1.059101           0.667486           1.059101
