#                                                                     
# $$\                                                                 
# $$ |                                                                
# $$ |     $$\   $$\ $$$$$$\$$$$\   $$$$$$\  $$$$$$$\                 
# $$ |     $$ |  $$ |$$  _$$  _$$\ $$  __$$\ $$  __$$\                
# $$ |     $$ |  $$ |$$ / $$ / $$ |$$$$$$$$ |$$ |  $$ |               
# $$ |     $$ |  $$ |$$ | $$ | $$ |$$   ____|$$ |  $$ |               
# $$$$$$$$\\$$$$$$  |$$ | $$ | $$ |\$$$$$$$\ $$ |  $$ |               
# \________|\______/ \__| \__| \__| \_______|\__|  \__|               
#                                                                     
#                   Fork Lumen 2.1.0                                  
#                  Branch is bug-fixes                                
#        MPI+OpenMP+SLK+SLEPC+HDF5_MPI_IO Build                       
#               http://www.lumen-code.org                             
#
# Absorption @ Q(1):   1.00000000      0.00000000      0.00000000    [q->0 direction]
#
# [ X ] Hartree size                              :  1
# [GEN] GF Energies                               : Perdew, Burke & Ernzerhof(X)+Perdew, Burke & Ernzerhof(C)
# [GEN] Green`s Function                          : T-ordered
#
# [GEN] Gauge                                     : Length
# [GEN] [r,Vnl] included                          : yes
#
#    E[1] [eV]          Im(eps)            Re(eps)            Im(eps_o)          Re(eps_o)
#
        5.000000           1.947983           2.741068           1.947983           2.741067
        5.037593           2.112553           2.747720           2.112553           2.747719
        5.075188           2.282597           2.715082           2.282597           2.715081
        5.112782           2.444718           2.655955           2.444719           2.655955
        5.150376           2.606786           2.585469           2.606786           2.585469
        5.187970           2.786173           2.488240           2.786172           2.488242
        5.225564           2.962826           2.344323           2.962826           2.344324
        5.263157           3.122022           2.166923           3.122022           2.166924
        5.300752           3.276958           1.954846           3.276958           1.954846
        5.338346           3.414547           1.669467           3.414547           1.669468
        5.375940           3.460874           1.309123           3.460873           1.309124
        5.413534           3.375983           0.959036           3.375983           0.959037
        5.451128           3.221195           0.683360           3.221195           0.683361
        5.488721           3.043435           0.451807           3.043435           0.451808
        5.526316           2.814933           0.261377           2.814932           0.261377
        5.563910           2.563425           0.161356           2.563425           0.161357
        5.601503           2.351035           0.129793           2.351035           0.129793
        5.639097           2.180378           0.114037           2.180378           0.114037
        5.676692           2.015635           0.100167           2.015636           0.100167
        5.714285           1.849373           0.115250           1.849373           0.115250
        5.751880           1.706537           0.161816           1.706537           0.161816
        5.789474           1.593585           0.220002           1.593585           0.220002
        5.827067           1.500916           0.282044           1.500916           0.282045
        5.864661           1.429912           0.350842           1.429912           0.350843
        5.902255           1.384806           0.412099           1.384806           0.412099
        5.939849           1.344732           0.459658           1.344732           0.459657
        5.977444           1.308093           0.513004           1.308093           0.513004
        6.015037           1.289587           0.566493           1.289587           0.566493
        6.052631           1.279959           0.612730           1.279959           0.612730
        6.090225           1.284064           0.662619           1.284064           0.662619
        6.127820           1.317501           0.698656           1.317501           0.698656
        6.165413           1.360632           0.698235           1.360632           0.698236
        6.203007           1.389172           0.671023           1.389172           0.671023
        6.240601           1.403093           0.632506           1.403093           0.632506
        6.278195           1.404936           0.580579           1.404936           0.580579
        6.315789           1.382367           0.517810           1.382367           0.517810
        6.353383           1.332193           0.458877           1.332193           0.458877
        6.390977           1.253446           0.414853           1.253446           0.414853
        6.428571           1.156251           0.410864           1.156251           0.410864
        6.466165           1.079432           0.449104           1.079432           0.449104
        6.503759           1.039568           0.496931           1.039568           0.496931
        6.541353           1.023654           0.533219           1.023654           0.533219
        6.578947           1.019062           0.552137           1.019062           0.552137
        6.616541           1.012423           0.551029           1.012423           0.551029
        6.654135           0.987626           0.538900           0.987626           0.538900
        6.691729           0.943524           0.537500           0.943524           0.537500
        6.729323           0.898471           0.557762           0.898471           0.557762
        6.766917           0.868206           0.590411           0.868206           0.590411
        6.804511           0.853605           0.622400           0.853605           0.622400
        6.842104           0.849766           0.645634           0.849766           0.645635
        6.879699           0.846448           0.657512           0.846448           0.657512
        6.917293           0.839515           0.665896           0.839515           0.665896
        6.954887           0.833311           0.671598           0.833311           0.671598
        6.992481           0.826472           0.670462           0.826472           0.670462
        7.030074           0.810915           0.661128           0.810915           0.661128
        7.067669           0.779407           0.655102           0.779407           0.655102
        7.105263           0.742048           0.663786           0.742048           0.663786
        7.142857           0.708889           0.682189           0.708889           0.682189
        7.180451           0.678790           0.706454           0.678791           0.706454
        7.218045           0.654317           0.738203           0.654317           0.738203
        7.255639           0.640105           0.772309           0.640105           0.772309
        7.293232           0.632092           0.802526           0.632092           0.802526
        7.330826           0.625447           0.831690           0.625447           0.831690
        7.368421           0.623683           0.861977           0.623683           0.861977
        7.406014           0.627690           0.888505           0.627690           0.888505
        7.443608           0.632394           0.909575           0.632394           0.909575
        7.481203           0.633909           0.929278           0.633909           0.929278
        7.518797           0.635174           0.954503           0.635174           0.954503
        7.556391           0.646181           0.984111           0.646181           0.984111
        7.593984           0.669877           1.007064           0.669877           1.007064
        7.631578           0.698919           1.014026           0.698919           1.014026
        7.669173           0.718552           1.003768           0.718552           1.003768
        7.706767           0.717401           0.991839           0.717401           0.991839
        7.744360           0.707387           0.996210           0.707387           0.996210
        7.781955           0.706288           1.009798           0.706288           1.009798
        7.819549           0.710015           1.019700           0.710015           1.019700
        7.857142           0.710257           1.029363           0.710258           1.029363
        7.894736           0.710212           1.046063           0.710212           1.046063
        7.932330           0.717790           1.067680           0.717790           1.067680
        7.969924           0.731700           1.088665           0.731700           1.088665
        8.007519           0.752467           1.112060           0.752466           1.112061
        8.045113           0.787804           1.132853           0.787804           1.132853
        8.082706           0.835216           1.139628           0.835216           1.139628
        8.120299           0.885616           1.127353           0.885616           1.127353
        8.157894           0.929650           1.096533           0.929650           1.096533
        8.195488           0.959552           1.052402           0.959552           1.052402
        8.233082           0.972258           1.004128           0.972258           1.004128
        8.270677           0.972076           0.958097           0.972076           0.958097
        8.308270           0.960937           0.913748           0.960937           0.913748
        8.345864           0.934848           0.875365           0.934848           0.875365
        8.383458           0.898666           0.854711           0.898665           0.854711
        8.421052           0.868291           0.853713           0.868291           0.853713
        8.458646           0.854567           0.859731           0.854567           0.859731
        8.496240           0.852766           0.857281           0.852766           0.857281
        8.533834           0.848631           0.843318           0.848631           0.843318
        8.571428           0.833933           0.828328           0.833933           0.828328
        8.609021           0.816063           0.823604           0.816063           0.823604
        8.646616           0.809921           0.824394           0.809922           0.824394
        8.684210           0.814429           0.809612           0.814429           0.809612
        8.721804           0.802024           0.775216           0.802024           0.775216
        8.759398           0.763172           0.750075           0.763172           0.750075
        8.796992           0.720155           0.747764           0.720155           0.747764
        8.834586           0.687312           0.756171           0.687312           0.756171
        8.872180           0.659831           0.763985           0.659831           0.763985
        8.909773           0.630465           0.773360           0.630465           0.773360
        8.947368           0.600370           0.789165           0.600369           0.789166
        8.984962           0.573256           0.812643           0.573256           0.812643
        9.022555           0.553108           0.842038           0.553108           0.842038
        9.060150           0.540625           0.873192           0.540625           0.873192
        9.097744           0.534473           0.905199           0.534473           0.905198
        9.135338           0.536429           0.936374           0.536429           0.936374
        9.172933           0.544403           0.962164           0.544403           0.962164
        9.210526           0.553314           0.982875           0.553314           0.982875
        9.248120           0.561592           1.002621           0.561592           1.002622
        9.285713           0.572754           1.024462           0.572754           1.024462
        9.323307           0.591750           1.045456           0.591750           1.045456
        9.360902           0.617560           1.059247           0.617560           1.059247
        9.398496           0.645794           1.064586           0.645794           1.064586
        9.436090           0.675686           1.060302           0.675686           1.060302
        9.473684           0.701637           1.042462           0.701637           1.042462
        9.511277           0.714280           1.015231           0.714280           1.015231
        9.548872           0.711231           0.988735           0.711231           0.988735
        9.586466           0.697714           0.970643           0.697714           0.970643
        9.624060           0.680380           0.961737           0.680380           0.961737
        9.661654           0.661636           0.961023           0.661636           0.961023
        9.699247           0.645160           0.969337           0.645160           0.969337
        9.736841           0.635338           0.982606           0.635338           0.982606
        9.774436           0.629809           0.996342           0.629809           0.996342
        9.812029           0.626664           1.013320           0.626664           1.013320
        9.849624           0.631486           1.034118           0.631486           1.034119
        9.887218           0.647561           1.051697           0.647561           1.051698
        9.924811           0.670752           1.058124           0.670752           1.058124
        9.962406           0.691561           1.050800           0.691561           1.050800
        9.999999           0.700342           1.035598           0.700342           1.035598
        10.03759           0.696782           1.025431           0.696782           1.025431
        10.07519           0.692136           1.025604           0.692136           1.025604
        10.11278           0.693795           1.028745           0.693795           1.028745
        10.15038           0.696939           1.027378           0.696939           1.027378
        10.18797           0.694355           1.026209           0.694355           1.026209
        10.22556           0.691153           1.032814           0.691153           1.032814
        10.26316           0.695586           1.042995           0.695586           1.042995
        10.30075           0.705610           1.049018           0.705610           1.049018
        10.33835           0.715931           1.050781           0.715931           1.050781
        10.37594           0.725643           1.050428           0.725643           1.050428
        10.41353           0.734764           1.047770           0.734764           1.047770
        10.45113           0.740818           1.043176           0.740818           1.043176
        10.48872           0.743254           1.041263           0.743254           1.041263
        10.52631           0.747272           1.044058           0.747272           1.044058
        10.56391           0.756558           1.048099           0.756558           1.048099
        10.60150           0.771220           1.048447           0.771220           1.048447
        10.63910           0.786810           1.041052           0.786810           1.041052
        10.67669           0.796464           1.027209           0.796464           1.027208
        10.71428           0.796792           1.014141           0.796792           1.014141
        10.75188           0.792123           1.008975           0.792123           1.008975
        10.78947           0.790096           1.012031           0.790096           1.012031
        10.82707           0.794077           1.019699           0.794077           1.019699
        10.86466           0.806967           1.029214           0.806967           1.029214
        10.90225           0.830065           1.034272           0.830065           1.034272
        10.93985           0.859760           1.028751           0.859759           1.028751
        10.97744           0.889203           1.010826           0.889203           1.010826
        11.01504           0.914466           0.981929           0.914466           0.981929
        11.05263           0.930288           0.941880           0.930288           0.941880
        11.09022           0.928842           0.896675           0.928842           0.896675
        11.12782           0.910050           0.858996           0.910050           0.858996
        11.16541           0.883979           0.835739           0.883979           0.835739
        11.20301           0.859474           0.824845           0.859474           0.824846
        11.24060           0.841101           0.820579           0.841101           0.820579
        11.27819           0.827401           0.816908           0.827401           0.816908
        11.31579           0.814096           0.813269           0.814096           0.813269
        11.35338           0.800426           0.812389           0.800426           0.812389
        11.39098           0.788794           0.815861           0.788794           0.815861
        11.42857           0.782770           0.821649           0.782770           0.821649
        11.46616           0.781847           0.824884           0.781847           0.824884
        11.50376           0.781398           0.823795           0.781398           0.823795
        11.54135           0.778290           0.822562           0.778290           0.822562
        11.57895           0.776600           0.823962           0.776600           0.823962
        11.61654           0.778468           0.824780           0.778468           0.824780
        11.65413           0.783071           0.822718           0.783071           0.822718
        11.69173           0.788283           0.815277           0.788283           0.815277
        11.72932           0.788970           0.802263           0.788970           0.802263
        11.76692           0.780702           0.789301           0.780702           0.789301
        11.80451           0.766903           0.784242           0.766903           0.784242
        11.84210           0.755454           0.787464           0.755454           0.787464
        11.87970           0.749231           0.794439           0.749231           0.794439
        11.91729           0.748073           0.803336           0.748073           0.803336
        11.95489           0.753289           0.812280           0.753290           0.812280
        11.99248           0.764928           0.818475           0.764928           0.818475
        12.03007           0.782768           0.818615           0.782768           0.818615
        12.06767           0.803294           0.807641           0.803294           0.807641
        12.10526           0.818099           0.784654           0.818099           0.784654
        12.14286           0.820092           0.755969           0.820092           0.755969
        12.18045           0.809301           0.731951           0.809301           0.731951
        12.21804           0.794246           0.718557           0.794246           0.718557
        12.25564           0.783019           0.712181           0.783019           0.712181
        12.29323           0.776460           0.706452           0.776460           0.706452
        12.33083           0.771259           0.698307           0.771259           0.698307
        12.36842           0.764067           0.688719           0.764067           0.688719
        12.40601           0.754368           0.680355           0.754368           0.680355
