#                                                                     
# $$\                                                                 
# $$ |                                                                
# $$ |     $$\   $$\ $$$$$$\$$$$\   $$$$$$\  $$$$$$$\                 
# $$ |     $$ |  $$ |$$  _$$  _$$\ $$  __$$\ $$  __$$\                
# $$ |     $$ |  $$ |$$ / $$ / $$ |$$$$$$$$ |$$ |  $$ |               
# $$ |     $$ |  $$ |$$ | $$ | $$ |$$   ____|$$ |  $$ |               
# $$$$$$$$\\$$$$$$  |$$ | $$ | $$ |\$$$$$$$\ $$ |  $$ |               
# \________|\______/ \__| \__| \__| \_______|\__|  \__|               
#                                                                     
#                   Fork Lumen 2.1.0                                  
#                  Branch is bug-fixes                                
#        MPI+OpenMP+SLK+SLEPC+HDF5_MPI_IO Build                       
#               http://www.lumen-code.org                             
#
# Absorption @ Q(1):   1.00000000      0.00000000      0.00000000    [q->0 direction]
#
# [ X ] Hartree size                              :  1
# [GEN] GF Energies                               : Perdew, Burke & Ernzerhof(X)+Perdew, Burke & Ernzerhof(C)
# [GEN] Green`s Function                          : T-ordered
#
# [GEN] Gauge                                     : Length
# [GEN] [r,Vnl] included                          : yes
#
#    E[1] [eV]          Im(eps)            Re(eps)            Im(eps_o)          Re(eps_o)
#
        5.000000           1.929167           2.736161           1.929167           2.736161
        5.037593           2.093098           2.751026           2.093100           2.751026
        5.075188           2.271080           2.725808           2.271080           2.725808
        5.112782           2.440387           2.664195           2.440386           2.664196
        5.150376           2.600184           2.588310           2.600183           2.588310
        5.187970           2.768617           2.498556           2.768617           2.498556
        5.225564           2.951671           2.379121           2.951671           2.379121
        5.263157           3.146425           2.209728           3.146424           2.209729
        5.300752           3.327635           1.966346           3.327636           1.966345
        5.338346           3.452937           1.650723           3.452937           1.650723
        5.375940           3.488712           1.288234           3.488712           1.288232
        5.413534           3.411643           0.915803           3.411643           0.915803
        5.451128           3.214775           0.597804           3.214775           0.597803
        5.488721           2.955374           0.395718           2.955374           0.395717
        5.526316           2.716565           0.305453           2.716565           0.305452
        5.563910           2.551437           0.261239           2.551437           0.261239
        5.601503           2.424767           0.178775           2.424767           0.178775
        5.639097           2.242033           0.073397           2.242033           0.073397
        5.676692           2.006037           0.040189           2.006037           0.040190
        5.714285           1.800539           0.096924           1.800539           0.096924
        5.751880           1.667326           0.188795           1.667326           0.188795
        5.789474           1.592347           0.264895           1.592346           0.264895
        5.827067           1.533773           0.305260           1.533773           0.305259
        5.864661           1.457816           0.338411           1.457815           0.338411
        5.902255           1.385264           0.396392           1.385264           0.396392
        5.939849           1.345555           0.462968           1.345555           0.462968
        5.977444           1.326035           0.506453           1.326035           0.506453
        6.015037           1.292618           0.538760           1.292618           0.538760
        6.052631           1.258600           0.595327           1.258600           0.595327
        6.090225           1.262406           0.665223           1.262406           0.665223
        6.127820           1.303738           0.709725           1.303737           0.709725
        6.165413           1.355160           0.714774           1.355160           0.714775
        6.203007           1.396661           0.687143           1.396661           0.687143
        6.240601           1.420679           0.636191           1.420679           0.636191
        6.278195           1.416474           0.564954           1.416474           0.564954
        6.315789           1.367521           0.498057           1.367521           0.498057
        6.353383           1.298583           0.468871           1.298583           0.468872
        6.390977           1.243460           0.462312           1.243460           0.462311
        6.428571           1.199543           0.455903           1.199543           0.455903
        6.466165           1.151399           0.441708           1.151399           0.441708
        6.503759           1.085878           0.437940           1.085878           0.437940
        6.541353           1.022966           0.457997           1.022966           0.457997
        6.578947           0.974190           0.488863           0.974190           0.488863
        6.616541           0.936455           0.522761           0.936454           0.522761
        6.654135           0.906626           0.559260           0.906626           0.559260
        6.691729           0.888553           0.600097           0.888553           0.600097
        6.729323           0.888566           0.636782           0.888566           0.636782
        6.766917           0.899518           0.655298           0.899518           0.655298
        6.804511           0.903777           0.657770           0.903777           0.657770
        6.842104           0.901092           0.657729           0.901092           0.657729
        6.879699           0.897971           0.652532           0.897971           0.652532
        6.917293           0.887368           0.638356           0.887368           0.638356
        6.954887           0.861978           0.622445           0.861978           0.622445
        6.992481           0.824473           0.616340           0.824473           0.616340
        7.030074           0.784940           0.622117           0.784940           0.622117
        7.067669           0.746057           0.636707           0.746057           0.636707
        7.105263           0.711292           0.660547           0.711292           0.660547
        7.142857           0.683887           0.688463           0.683887           0.688464
        7.180451           0.659432           0.718038           0.659432           0.718038
        7.218045           0.639429           0.755140           0.639429           0.755140
        7.255639           0.633563           0.795454           0.633563           0.795454
        7.293232           0.640363           0.826894           0.640363           0.826894
        7.330826           0.648312           0.842803           0.648313           0.842803
        7.368421           0.643295           0.851959           0.643295           0.851959
        7.406014           0.629277           0.870491           0.629277           0.870491
        7.443608           0.618892           0.900560           0.618892           0.900560
        7.481203           0.618891           0.936890           0.618891           0.936890
        7.518797           0.632787           0.972975           0.632787           0.972975
        7.556391           0.660532           0.999406           0.660531           0.999406
        7.593984           0.693929           1.006103           0.693929           1.006102
        7.631578           0.715419           0.992599           0.715419           0.992599
        7.669173           0.712277           0.975389           0.712277           0.975389
        7.706767           0.691626           0.977279           0.691626           0.977279
        7.744360           0.679151           1.003416           0.679151           1.003416
        7.781955           0.689499           1.032712           0.689499           1.032712
        7.819549           0.709498           1.047428           0.709498           1.047428
        7.857142           0.725223           1.053256           0.725223           1.053256
        7.894736           0.735976           1.056448           0.735976           1.056448
        7.932330           0.740803           1.062502           0.740803           1.062502
        7.969924           0.745446           1.078167           0.745446           1.078167
        8.007519           0.762505           1.103258           0.762505           1.103258
        8.045113           0.799422           1.121808           0.799422           1.121808
        8.082706           0.844435           1.122788           0.844435           1.122788
        8.120299           0.891344           1.106401           0.891344           1.106401
        8.157894           0.928621           1.066914           0.928621           1.066914
        8.195488           0.939677           1.020800           0.939677           1.020800
        8.233082           0.937909           0.985335           0.937909           0.985335
        8.270677           0.931847           0.953067           0.931847           0.953067
        8.308270           0.914369           0.925223           0.914369           0.925223
        8.345864           0.892010           0.915840           0.892011           0.915840
        8.383458           0.885863           0.919116           0.885863           0.919116
        8.421052           0.895583           0.912414           0.895583           0.912414
        8.458646           0.903500           0.890819           0.903500           0.890819
        8.496240           0.903354           0.861724           0.903354           0.861724
        8.533834           0.891814           0.828716           0.891814           0.828716
        8.571428           0.867022           0.801516           0.867022           0.801516
        8.609021           0.841130           0.785892           0.841130           0.785892
        8.646616           0.818021           0.768274           0.818021           0.768274
        8.684210           0.781345           0.750589           0.781345           0.750589
        8.721804           0.736047           0.752708           0.736047           0.752708
        8.759398           0.703671           0.774106           0.703671           0.774106
        8.796992           0.692376           0.795973           0.692376           0.795973
        8.834586           0.692052           0.803628           0.692052           0.803628
        8.872180           0.686799           0.794521           0.686800           0.794521
        8.909773           0.662874           0.780683           0.662874           0.780683
        8.947368           0.624495           0.779984           0.624495           0.779984
        8.984962           0.585218           0.797748           0.585218           0.797748
        9.022555           0.556674           0.829248           0.556674           0.829248
        9.060150           0.542144           0.863658           0.542144           0.863658
        9.097744           0.536451           0.893893           0.536451           0.893893
        9.135338           0.532580           0.920044           0.532580           0.920044
        9.172933           0.528542           0.948401           0.528542           0.948401
        9.210526           0.530702           0.981651           0.530702           0.981651
        9.248120           0.542816           1.014594           0.542816           1.014594
        9.285713           0.563493           1.043773           0.563493           1.043773
        9.323307           0.593331           1.066970           0.593331           1.066970
        9.360902           0.631648           1.077933           0.631648           1.077933
        9.398496           0.670462           1.069854           0.670462           1.069854
        9.436090           0.695175           1.046375           0.695175           1.046375
        9.473684           0.703417           1.023479           0.703417           1.023479
        9.511277           0.705518           1.005511           0.705518           1.005511
        9.548872           0.703578           0.988829           0.703578           0.988829
        9.586466           0.695880           0.973232           0.695880           0.973232
        9.624060           0.680952           0.962552           0.680952           0.962552
        9.661654           0.663501           0.960598           0.663501           0.960598
        9.699247           0.647310           0.965274           0.647310           0.965274
        9.736841           0.632501           0.975657           0.632501           0.975657
        9.774436           0.621065           0.993732           0.621065           0.993732
        9.812029           0.619410           1.017828           0.619410           1.017828
        9.849624           0.629597           1.040255           0.629596           1.040255
        9.887218           0.648157           1.055777           0.648157           1.055777
        9.924811           0.671411           1.061117           0.671411           1.061117
        9.962406           0.692102           1.054253           0.692102           1.054253
        9.999999           0.702897           1.041030           0.702897           1.041030
        10.03759           0.705610           1.029291           0.705610           1.029291
        10.07519           0.703040           1.019612           0.703040           1.019612
        10.11278           0.694985           1.015515           0.694985           1.015515
        10.15038           0.687470           1.020005           0.687470           1.020005
        10.18797           0.685829           1.028977           0.685829           1.028977
        10.22556           0.688901           1.037561           0.688901           1.037561
        10.26316           0.694831           1.046199           0.694831           1.046199
        10.30075           0.706478           1.053746           0.706478           1.053746
        10.33835           0.721828           1.053476           0.721828           1.053476
        10.37594           0.731629           1.045862           0.731629           1.045862
        10.41353           0.733241           1.039747           0.733241           1.039747
        10.45113           0.733022           1.041077           0.733022           1.041077
        10.48872           0.738599           1.046534           0.738599           1.046534
        10.52631           0.749547           1.049027           0.749547           1.049027
        10.56391           0.760416           1.046973           0.760416           1.046973
        10.60150           0.769325           1.044805           0.769325           1.044805
        10.63910           0.781415           1.043105           0.781415           1.043105
        10.67669           0.795982           1.034293           0.795983           1.034293
        10.71428           0.802415           1.018592           0.802415           1.018592
        10.75188           0.798037           1.008003           0.798037           1.008003
        10.78947           0.793058           1.009683           0.793058           1.009683
        10.82707           0.797803           1.017533           0.797803           1.017533
        10.86466           0.810189           1.022850           0.810189           1.022851
        10.90225           0.827530           1.025874           0.827530           1.025874
        10.93985           0.851694           1.024529           0.851694           1.024529
        10.97744           0.881860           1.012963           0.881860           1.012963
        11.01504           0.910898           0.986076           0.910898           0.986076
        11.05263           0.928787           0.945279           0.928787           0.945279
        11.09022           0.927099           0.900245           0.927099           0.900245
        11.12782           0.910257           0.864782           0.910257           0.864782
        11.16541           0.888837           0.840412           0.888837           0.840412
        11.20301           0.865943           0.823852           0.865943           0.823852
        11.24060           0.842658           0.815377           0.842658           0.815377
        11.27819           0.823328           0.814864           0.823328           0.814864
        11.31579           0.810824           0.817239           0.810824           0.817239
        11.35338           0.802436           0.818592           0.802436           0.818592
        11.39098           0.796034           0.819374           0.796034           0.819374
        11.42857           0.791757           0.818974           0.791757           0.818974
        11.46616           0.787062           0.816147           0.787062           0.816147
        11.50376           0.779111           0.814364           0.779111           0.814364
        11.54135           0.771778           0.818736           0.771778           0.818736
        11.57895           0.773039           0.825141           0.773039           0.825141
        11.61654           0.779287           0.824016           0.779287           0.824016
        11.65413           0.781997           0.817005           0.781997           0.817005
        11.69173           0.780242           0.809566           0.780242           0.809566
        11.72932           0.776486           0.804313           0.776486           0.804313
        11.76692           0.773443           0.799669           0.773443           0.799669
        11.80451           0.767545           0.793584           0.767545           0.793584
        11.84210           0.757162           0.793242           0.757162           0.793242
        11.87970           0.751251           0.800425           0.751251           0.800425
        11.91729           0.751882           0.808969           0.751882           0.808969
        11.95489           0.759093           0.817741           0.759093           0.817741
        11.99248           0.774658           0.821666           0.774658           0.821666
        12.03007           0.793996           0.815706           0.793996           0.815706
        12.06767           0.811574           0.798363           0.811574           0.798363
        12.10526           0.818760           0.771013           0.818760           0.771013
        12.14286           0.809655           0.745383           0.809655           0.745383
        12.18045           0.793239           0.734205           0.793239           0.734205
        12.21804           0.785906           0.734723           0.785906           0.734723
        12.25564           0.791484           0.731174           0.791484           0.731174
        12.29323           0.798307           0.714335           0.798307           0.714334
        12.33083           0.794861           0.689560           0.794861           0.689560
        12.36842           0.778528           0.666154           0.778528           0.666154
        12.40601           0.753423           0.653499           0.753423           0.653499
