#                                                                     
# $$\                                                                 
# $$ |                                                                
# $$ |     $$\   $$\ $$$$$$\$$$$\   $$$$$$\  $$$$$$$\                 
# $$ |     $$ |  $$ |$$  _$$  _$$\ $$  __$$\ $$  __$$\                
# $$ |     $$ |  $$ |$$ / $$ / $$ |$$$$$$$$ |$$ |  $$ |               
# $$ |     $$ |  $$ |$$ | $$ | $$ |$$   ____|$$ |  $$ |               
# $$$$$$$$\\$$$$$$  |$$ | $$ | $$ |\$$$$$$$\ $$ |  $$ |               
# \________|\______/ \__| \__| \__| \_______|\__|  \__|               
#                                                                     
#                   Fork Lumen 2.1.0                                  
#                  Branch is bug-fixes                                
#        MPI+OpenMP+SLK+SLEPC+HDF5_MPI_IO Build                       
#               http://www.lumen-code.org                             
#
# Absorption @ Q(1):   1.00000000      0.00000000      0.00000000    [q->0 direction]
#
# [ X ] Hartree size                              :  1
# [GEN] GF Energies                               : Perdew, Burke & Ernzerhof(X)+Perdew, Burke & Ernzerhof(C)
# [GEN] Green`s Function                          : T-ordered
#
# [GEN] Gauge                                     : Length
# [GEN] [r,Vnl] included                          : yes
#
#    E[1] [eV]          Im(eps)            Re(eps)            Im(eps_o)          Re(eps_o)
#
        5.000000           1.949381           2.741578           1.949381           2.741578
        5.037593           2.114067           2.747959           2.114067           2.747959
        5.075188           2.284116           2.715243           2.284116           2.715243
        5.112782           2.446389           2.656222           2.446390           2.656222
        5.150376           2.608991           2.585763           2.608991           2.585763
        5.187970           2.789062           2.488042           2.789061           2.488042
        5.225564           2.966045           2.343258           2.966045           2.343258
        5.263157           3.125293           2.164928           3.125294           2.164927
        5.300752           3.280033           1.951594           3.280032           1.951596
        5.338346           3.416451           1.664867           3.416451           1.664867
        5.375940           3.460824           1.304277           3.460823           1.304278
        5.413534           3.374635           0.955175           3.374635           0.955174
        5.451128           3.219576           0.680317           3.219576           0.680317
        5.488721           3.041411           0.449032           3.041411           0.449032
        5.526316           2.812316           0.259431           2.812316           0.259432
        5.563910           2.560966           0.160427           2.560966           0.160427
        5.601503           2.349101           0.129299           2.349101           0.129299
        5.639097           2.178666           0.113542           2.178666           0.113542
        5.676692           2.013827           0.099871           2.013827           0.099870
        5.714285           1.847609           0.115393           1.847609           0.115393
        5.751880           1.705079           0.162284           1.705079           0.162284
        5.789474           1.592507           0.220619           1.592507           0.220619
        5.827067           1.500164           0.282654           1.500164           0.282654
        5.864661           1.429390           0.351384           1.429390           0.351384
        5.902255           1.384429           0.412521           1.384429           0.412521
        5.939849           1.344417           0.460018           1.344417           0.460018
        5.977444           1.307889           0.513331           1.307889           0.513331
        6.015037           1.289464           0.566738           1.289464           0.566738
        6.052631           1.279899           0.612934           1.279899           0.612934
        6.090225           1.284128           0.662744           1.284128           0.662744
        6.127820           1.317612           0.698575           1.317612           0.698575
        6.165413           1.360624           0.697985           1.360624           0.697985
        6.203007           1.389015           0.670756           1.389015           0.670756
        6.240601           1.402882           0.632283           1.402882           0.632283
        6.278195           1.404704           0.580354           1.404704           0.580354
        6.315789           1.382068           0.517570           1.382068           0.517570
        6.353383           1.331810           0.458649           1.331810           0.458649
        6.390977           1.252933           0.414690           1.252933           0.414690
        6.428571           1.155674           0.410911           1.155674           0.410911
        6.466165           1.078962           0.449371           1.078962           0.449371
        6.503759           1.039315           0.497282           1.039315           0.497281
        6.541353           1.023583           0.533520           1.023583           0.533520
        6.578947           1.019129           0.552335           1.019129           0.552335
        6.616541           1.012534           0.551046           1.012534           0.551046
        6.654135           0.987641           0.538790           0.987641           0.538790
        6.691729           0.943420           0.537384           0.943420           0.537384
        6.729323           0.898327           0.557720           0.898327           0.557720
        6.766917           0.868096           0.590420           0.868096           0.590420
        6.804511           0.853552           0.622401           0.853552           0.622401
        6.842104           0.849744           0.645572           0.849744           0.645572
        6.879699           0.846398           0.657391           0.846398           0.657391
        6.917293           0.839417           0.665743           0.839417           0.665743
        6.954887           0.833133           0.671452           0.833133           0.671452
        6.992481           0.826260           0.670378           0.826260           0.670378
        7.030074           0.810712           0.661080           0.810712           0.661080
        7.067669           0.779217           0.655082           0.779217           0.655082
        7.105263           0.741880           0.663770           0.741880           0.663770
        7.142857           0.708702           0.682171           0.708702           0.682171
        7.180451           0.678582           0.706492           0.678582           0.706492
        7.218045           0.654150           0.738294           0.654150           0.738294
        7.255639           0.639991           0.772411           0.639991           0.772411
        7.293232           0.632013           0.802613           0.632013           0.802613
        7.330826           0.625379           0.831766           0.625379           0.831766
        7.368421           0.623625           0.862067           0.623625           0.862067
        7.406014           0.627667           0.888607           0.627667           0.888607
        7.443608           0.632404           0.909675           0.632404           0.909675
        7.481203           0.633957           0.929392           0.633957           0.929392
        7.518797           0.635305           0.954616           0.635305           0.954616
        7.556391           0.646419           0.984147           0.646419           0.984147
        7.593984           0.670157           1.006945           0.670157           1.006945
        7.631578           0.699139           1.013740           0.699139           1.013740
        7.669173           0.718604           1.003396           0.718604           1.003396
        7.706767           0.717289           0.991541           0.717289           0.991541
        7.744360           0.707266           0.996029           0.707266           0.996029
        7.781955           0.706219           1.009622           0.706219           1.009622
        7.819549           0.709918           1.019480           0.709918           1.019480
        7.857142           0.710086           1.029168           0.710086           1.029168
        7.894736           0.710024           1.045960           0.710024           1.045960
        7.932330           0.717660           1.067631           0.717660           1.067631
        7.969924           0.731635           1.088605           0.731635           1.088605
        8.007519           0.752464           1.111949           0.752464           1.111949
        8.045113           0.787803           1.132627           0.787803           1.132627
        8.082706           0.835107           1.139326           0.835107           1.139326
        8.120299           0.885406           1.127087           0.885406           1.127087
        8.157894           0.929419           1.096281           0.929419           1.096281
        8.195488           0.959224           1.052142           0.959224           1.052142
        8.233082           0.971825           1.003965           0.971825           1.003965
        8.270677           0.971611           0.958079           0.971611           0.958079
        8.308270           0.960538           0.913887           0.960538           0.913887
        8.345864           0.934595           0.875555           0.934595           0.875555
        8.383458           0.898508           0.854869           0.898508           0.854869
        8.421052           0.868191           0.853828           0.868191           0.853828
        8.458646           0.854488           0.859783           0.854488           0.859783
        8.496240           0.852678           0.857297           0.852678           0.857297
        8.533834           0.848547           0.843291           0.848547           0.843291
        8.571428           0.833794           0.828231           0.833794           0.828231
        8.609021           0.815789           0.823519           0.815789           0.823519
        8.646616           0.809563           0.824449           0.809563           0.824449
        8.684210           0.814135           0.809841           0.814135           0.809841
        8.721804           0.801894           0.775491           0.801894           0.775491
        8.759398           0.763151           0.750280           0.763151           0.750280
        8.796992           0.720158           0.747886           0.720158           0.747886
        8.834586           0.687293           0.756259           0.687293           0.756259
        8.872180           0.659801           0.764061           0.659801           0.764061
        8.909773           0.630434           0.773434           0.630434           0.773434
        8.947368           0.600345           0.789252           0.600345           0.789252
        8.984962           0.573262           0.812726           0.573262           0.812726
        9.022555           0.553139           0.842095           0.553139           0.842095
        9.060150           0.540656           0.873217           0.540656           0.873217
        9.097744           0.534521           0.905208           0.534521           0.905208
        9.135338           0.536492           0.936323           0.536492           0.936323
        9.172933           0.544416           0.962045           0.544416           0.962045
        9.210526           0.553249           0.982731           0.553249           0.982731
        9.248120           0.561446           1.002510           0.561446           1.002510
        9.285713           0.572571           1.024414           0.572571           1.024414
        9.323307           0.591557           1.045465           0.591557           1.045465
        9.360902           0.617381           1.059306           0.617381           1.059306
        9.398496           0.645624           1.064679           0.645624           1.064679
        9.436090           0.675529           1.060459           0.675529           1.060459
        9.473684           0.701562           1.042704           0.701562           1.042704
        9.511277           0.714348           1.015474           0.714348           1.015474
        9.548872           0.711386           0.988889           0.711386           0.988889
        9.586466           0.697907           0.970737           0.697907           0.970737
        9.624060           0.680653           0.961748           0.680653           0.961748
        9.661654           0.661930           0.960865           0.661930           0.960865
        9.699247           0.645368           0.969012           0.645368           0.969012
        9.736841           0.635387           0.982172           0.635387           0.982172
        9.774436           0.629638           0.995902           0.629638           0.995902
        9.812029           0.626331           1.013012           0.626331           1.013012
        9.849624           0.631121           1.033960           0.631121           1.033960
        9.887218           0.647210           1.051627           0.647210           1.051627
        9.924811           0.670414           1.058137           0.670414           1.058137
        9.962406           0.691296           1.050861           0.691296           1.050861
        9.999999           0.700089           1.035632           0.700089           1.035632
        10.03759           0.696486           1.025525           0.696486           1.025525
        10.07519           0.691918           1.025789           0.691918           1.025789
        10.11278           0.693690           1.028878           0.693690           1.028878
        10.15038           0.696790           1.027397           0.696791           1.027397
        10.18797           0.694072           1.026273           0.694071           1.026273
        10.22556           0.690879           1.033026           0.690879           1.033026
        10.26316           0.695417           1.043230           0.695417           1.043230
        10.30075           0.705421           1.049225           0.705421           1.049225
        10.33835           0.715724           1.051107           0.715724           1.051107
        10.37594           0.725580           1.050855           0.725580           1.050855
        10.41353           0.734875           1.048157           0.734875           1.048157
        10.45113           0.741019           1.043428           0.741019           1.043428
        10.48872           0.743426           1.041396           0.743426           1.041396
        10.52631           0.747380           1.044178           0.747380           1.044178
        10.56391           0.756710           1.048237           0.756710           1.048238
        10.60150           0.771412           1.048487           0.771412           1.048487
        10.63910           0.786914           1.040998           0.786914           1.040998
        10.67669           0.796429           1.027190           0.796429           1.027190
        10.71428           0.796742           1.014281           0.796742           1.014281
        10.75188           0.792212           1.009187           0.792212           1.009187
        10.78947           0.790302           1.012168           0.790302           1.012168
        10.82707           0.794283           1.019754           0.794283           1.019754
        10.86466           0.807190           1.029274           0.807191           1.029274
        10.90225           0.830433           1.034271           0.830433           1.034271
        10.93985           0.860146           1.028494           0.860146           1.028494
        10.97744           0.889443           1.010412           0.889443           1.010412
        11.01504           0.914547           0.981403           0.914547           0.981403
        11.05263           0.930127           0.941310           0.930128           0.941310
        11.09022           0.928428           0.896179           0.928428           0.896179
        11.12782           0.909444           0.858737           0.909444           0.858737
        11.16541           0.883378           0.835737           0.883378           0.835737
        11.20301           0.858963           0.825022           0.858963           0.825022
        11.24060           0.840719           0.820812           0.840719           0.820812
        11.27819           0.827040           0.817142           0.827040           0.817142
        11.31579           0.813714           0.813583           0.813714           0.813583
        11.35338           0.800071           0.812842           0.800071           0.812842
        11.39098           0.788577           0.816476           0.788577           0.816476
        11.42857           0.782824           0.822322           0.782823           0.822322
        11.46616           0.782136           0.825390           0.782136           0.825390
        11.50376           0.781694           0.824086           0.781694           0.824086
        11.54135           0.778530           0.822797           0.778530           0.822797
        11.57895           0.776856           0.824153           0.776856           0.824153
        11.61654           0.778699           0.824883           0.778699           0.824883
        11.65413           0.783215           0.822784           0.783215           0.822784
        11.69173           0.788355           0.815389           0.788354           0.815389
        11.72932           0.789031           0.802448           0.789031           0.802448
        11.76692           0.780788           0.789561           0.780788           0.789561
        11.80451           0.767078           0.784566           0.767078           0.784567
        11.84210           0.755734           0.787780           0.755734           0.787780
        11.87970           0.749586           0.794752           0.749586           0.794752
        11.91729           0.748573           0.803632           0.748573           0.803632
        11.95489           0.753958           0.812442           0.753959           0.812442
        11.99248           0.765680           0.818371           0.765680           0.818371
        12.03007           0.783370           0.818227           0.783370           0.818227
        12.06767           0.803634           0.807197           0.803634           0.807197
        12.10526           0.818307           0.784291           0.818307           0.784291
        12.14286           0.820262           0.755664           0.820262           0.755664
        12.18045           0.809435           0.731702           0.809435           0.731702
        12.21804           0.794450           0.718377           0.794450           0.718377
        12.25564           0.783362           0.711890           0.783362           0.711890
        12.29323           0.776733           0.705892           0.776733           0.705892
        12.33083           0.771202           0.697670           0.771202           0.697670
        12.36842           0.763805           0.688299           0.763805           0.688299
        12.40601           0.754156           0.680102           0.754155           0.680102
