#                                                                     
# $$\                                                                 
# $$ |                                                                
# $$ |     $$\   $$\ $$$$$$\$$$$\   $$$$$$\  $$$$$$$\                 
# $$ |     $$ |  $$ |$$  _$$  _$$\ $$  __$$\ $$  __$$\                
# $$ |     $$ |  $$ |$$ / $$ / $$ |$$$$$$$$ |$$ |  $$ |               
# $$ |     $$ |  $$ |$$ | $$ | $$ |$$   ____|$$ |  $$ |               
# $$$$$$$$\\$$$$$$  |$$ | $$ | $$ |\$$$$$$$\ $$ |  $$ |               
# \________|\______/ \__| \__| \__| \_______|\__|  \__|               
#                                                                     
#                   Fork Lumen 2.1.0                                  
#                  Branch is bug-fixes                                
#        MPI+OpenMP+SLK+SLEPC+HDF5_MPI_IO Build                       
#               http://www.lumen-code.org                             
#
# Absorption @ Q(1):   1.00000000      0.00000000      0.00000000    [q->0 direction]
#
# [ X ] Hartree size                              :  1
# [GEN] GF Energies                               : Perdew, Burke & Ernzerhof(X)+Perdew, Burke & Ernzerhof(C)
# [GEN] Green`s Function                          : T-ordered
#
# [GEN] Gauge                                     : Length
# [GEN] [r,Vnl] included                          : yes
#
#    E[1] [eV]          Im(eps)            Re(eps)            Im(eps_o)          Re(eps_o)
#
        5.000000           1.949391           2.741574           1.949390           2.741574
        5.037593           2.114076           2.747951           2.114076           2.747951
        5.075188           2.284121           2.715232           2.284120           2.715231
        5.112782           2.446390           2.656211           2.446390           2.656211
        5.150376           2.608989           2.585756           2.608988           2.585757
        5.187970           2.789053           2.488039           2.789056           2.488039
        5.225564           2.966040           2.343264           2.966040           2.343264
        5.263157           3.125303           2.164939           3.125303           2.164938
        5.300752           3.280052           1.951596           3.280053           1.951596
        5.338346           3.416469           1.664852           3.416469           1.664852
        5.375940           3.460826           1.304259           3.460826           1.304259
        5.413534           3.374635           0.955158           3.374634           0.955159
        5.451128           3.219573           0.680302           3.219573           0.680303
        5.488721           3.041407           0.449018           3.041406           0.449019
        5.526316           2.812307           0.259418           2.812307           0.259418
        5.563910           2.560958           0.160420           2.560958           0.160421
        5.601503           2.349093           0.129295           2.349094           0.129295
        5.639097           2.178660           0.113533           2.178660           0.113534
        5.676692           2.013815           0.099863           2.013815           0.099864
        5.714285           1.847597           0.115390           1.847596           0.115390
        5.751880           1.705069           0.162288           1.705069           0.162288
        5.789474           1.592497           0.220623           1.592497           0.220623
        5.827067           1.500157           0.282653           1.500157           0.282653
        5.864661           1.429382           0.351387           1.429383           0.351387
        5.902255           1.384421           0.412525           1.384420           0.412525
        5.939849           1.344410           0.460025           1.344409           0.460025
        5.977444           1.307888           0.513342           1.307888           0.513342
        6.015037           1.289466           0.566744           1.289466           0.566744
        6.052631           1.279901           0.612939           1.279901           0.612939
        6.090225           1.284130           0.662748           1.284130           0.662748
        6.127820           1.317614           0.698579           1.317614           0.698579
        6.165413           1.360626           0.697986           1.360626           0.697986
        6.203007           1.389017           0.670755           1.389017           0.670756
        6.240601           1.402885           0.632282           1.402885           0.632282
        6.278195           1.404706           0.580351           1.404706           0.580351
        6.315789           1.382070           0.517566           1.382070           0.517565
        6.353383           1.331809           0.458644           1.331809           0.458644
        6.390977           1.252928           0.414684           1.252928           0.414684
        6.428571           1.155666           0.410909           1.155666           0.410909
        6.466165           1.078957           0.449375           1.078957           0.449375
        6.503759           1.039313           0.497285           1.039313           0.497285
        6.541353           1.023583           0.533521           1.023583           0.533521
        6.578947           1.019129           0.552334           1.019129           0.552334
        6.616541           1.012532           0.551043           1.012532           0.551043
        6.654135           0.987637           0.538786           0.987637           0.538786
        6.691729           0.943413           0.537382           0.943413           0.537382
        6.729323           0.898318           0.557721           0.898318           0.557721
        6.766917           0.868087           0.590424           0.868087           0.590425
        6.804511           0.853544           0.622409           0.853544           0.622409
        6.842104           0.849740           0.645585           0.849740           0.645585
        6.879699           0.846400           0.657405           0.846400           0.657405
        6.917293           0.839424           0.665753           0.839424           0.665753
        6.954887           0.833140           0.671452           0.833140           0.671452
        6.992481           0.826265           0.670375           0.826265           0.670375
        7.030074           0.810715           0.661078           0.810715           0.661078
        7.067669           0.779217           0.655081           0.779217           0.655081
        7.105263           0.741880           0.663770           0.741880           0.663770
        7.142857           0.708701           0.682173           0.708701           0.682173
        7.180451           0.678579           0.706493           0.678579           0.706493
        7.218045           0.654148           0.738296           0.654148           0.738296
        7.255639           0.639989           0.772415           0.639989           0.772415
        7.293232           0.632014           0.802622           0.632014           0.802622
        7.330826           0.625384           0.831775           0.625384           0.831775
        7.368421           0.623635           0.862070           0.623635           0.862070
        7.406014           0.627676           0.888603           0.627676           0.888603
        7.443608           0.632406           0.909667           0.632406           0.909667
        7.481203           0.633956           0.929389           0.633955           0.929389
        7.518797           0.635305           0.954619           0.635305           0.954619
        7.556391           0.646420           0.984148           0.646420           0.984148
        7.593984           0.670158           1.006945           0.670158           1.006945
        7.631578           0.699142           1.013741           0.699142           1.013741
        7.669173           0.718607           1.003394           0.718606           1.003394
        7.706767           0.717290           0.991541           0.717290           0.991541
        7.744360           0.707268           0.996030           0.707268           0.996030
        7.781955           0.706221           1.009621           0.706221           1.009621
        7.819549           0.709918           1.019480           0.709918           1.019480
        7.857142           0.710085           1.029168           0.710085           1.029168
        7.894736           0.710026           1.045963           0.710026           1.045963
        7.932330           0.717666           1.067633           0.717666           1.067633
        7.969924           0.731643           1.088605           0.731643           1.088605
        8.007519           0.752471           1.111945           0.752471           1.111945
        8.045113           0.787809           1.132622           0.787809           1.132622
        8.082706           0.835111           1.139317           0.835111           1.139317
        8.120299           0.885409           1.127078           0.885409           1.127078
        8.157894           0.929419           1.096271           0.929419           1.096271
        8.195488           0.959222           1.052131           0.959222           1.052131
        8.233082           0.971823           1.003953           0.971823           1.003953
        8.270677           0.971605           0.958063           0.971606           0.958063
        8.308270           0.960525           0.913871           0.960525           0.913871
        8.345864           0.934570           0.875540           0.934570           0.875540
        8.383458           0.898472           0.854865           0.898472           0.854865
        8.421052           0.868148           0.853841           0.868148           0.853841
        8.458646           0.854453           0.859827           0.854453           0.859827
        8.496240           0.852682           0.857355           0.852682           0.857355
        8.533834           0.848584           0.843326           0.848584           0.843326
        8.571428           0.833834           0.828235           0.833834           0.828235
        8.609021           0.815815           0.823508           0.815815           0.823508
        8.646616           0.809580           0.824433           0.809580           0.824433
        8.684210           0.814142           0.809818           0.814142           0.809818
        8.721804           0.801888           0.775471           0.801888           0.775471
        8.759398           0.763138           0.750267           0.763137           0.750267
        8.796992           0.720141           0.747880           0.720141           0.747880
        8.834586           0.687278           0.756261           0.687277           0.756261
        8.872180           0.659785           0.764068           0.659785           0.764068
        8.909773           0.630417           0.773448           0.630417           0.773448
        8.947368           0.600336           0.789275           0.600336           0.789275
        8.984962           0.573269           0.812750           0.573269           0.812750
        9.022555           0.553155           0.842107           0.553155           0.842107
        9.060150           0.540668           0.873218           0.540668           0.873218
        9.097744           0.534526           0.905207           0.534525           0.905207
        9.135338           0.536492           0.936323           0.536492           0.936323
        9.172933           0.544412           0.962052           0.544412           0.962052
        9.210526           0.553250           0.982745           0.553250           0.982745
        9.248120           0.561457           1.002523           0.561457           1.002523
        9.285713           0.572586           1.024421           0.572586           1.024420
        9.323307           0.591571           1.045467           0.591571           1.045467
        9.360902           0.617391           1.059307           0.617391           1.059307
        9.398496           0.645633           1.064682           0.645633           1.064682
        9.436090           0.675542           1.060466           0.675541           1.060466
        9.473684           0.701585           1.042709           0.701585           1.042709
        9.511277           0.714379           1.015467           0.714379           1.015467
        9.548872           0.711411           0.988861           0.711411           0.988861
        9.586466           0.697914           0.970700           0.697914           0.970700
        9.624060           0.680639           0.961716           0.680639           0.961716
        9.661654           0.661908           0.960849           0.661908           0.960849
        9.699247           0.645351           0.969010           0.645351           0.969010
        9.736841           0.635376           0.982170           0.635376           0.982170
        9.774436           0.629627           0.995899           0.629627           0.995899
        9.812029           0.626319           1.013012           0.626319           1.013012
        9.849624           0.631111           1.033962           0.631111           1.033962
        9.887218           0.647201           1.051631           0.647201           1.051631
        9.924811           0.670403           1.058142           0.670403           1.058142
        9.962406           0.691288           1.050875           0.691288           1.050875
        9.999999           0.700091           1.035648           0.700091           1.035648
        10.03759           0.696494           1.025534           0.696494           1.025534
        10.07519           0.691929           1.025795           0.691929           1.025795
        10.11278           0.693705           1.028874           0.693705           1.028874
        10.15038           0.696797           1.027381           0.696797           1.027381
        10.18797           0.694061           1.026257           0.694061           1.026257
        10.22556           0.690860           1.033025           0.690860           1.033025
        10.26316           0.695404           1.043242           0.695404           1.043242
        10.30075           0.705420           1.049241           0.705420           1.049241
        10.33835           0.715728           1.051119           0.715728           1.051119
        10.37594           0.725587           1.050862           0.725587           1.050862
        10.41353           0.734881           1.048161           0.734881           1.048161
        10.45113           0.741023           1.043431           0.741023           1.043431
        10.48872           0.743431           1.041403           0.743431           1.041403
        10.52631           0.747393           1.044188           0.747393           1.044188
        10.56391           0.756734           1.048240           0.756734           1.048240
        10.60150           0.771439           1.048469           0.771439           1.048469
        10.63910           0.786920           1.040963           0.786921           1.040963
        10.67669           0.796414           1.027164           0.796414           1.027164
        10.71428           0.796721           1.014272           0.796721           1.014272
        10.75188           0.792195           1.009191           0.792195           1.009190
        10.78947           0.790288           1.012173           0.790288           1.012173
        10.82707           0.794274           1.019772           0.794274           1.019772
        10.86466           0.807198           1.029298           0.807198           1.029298
        10.90225           0.830460           1.034282           0.830460           1.034282
        10.93985           0.860171           1.028482           0.860171           1.028481
        10.97744           0.889455           1.010392           0.889455           1.010392
        11.01504           0.914550           0.981381           0.914550           0.981381
        11.05263           0.930121           0.941285           0.930121           0.941285
        11.09022           0.928409           0.896162           0.928409           0.896162
        11.12782           0.909423           0.858734           0.909423           0.858734
        11.16541           0.883364           0.835740           0.883364           0.835740
        11.20301           0.858954           0.825025           0.858954           0.825025
        11.24060           0.840710           0.820813           0.840710           0.820813
        11.27819           0.827027           0.817142           0.827027           0.817142
        11.31579           0.813699           0.813587           0.813699           0.813587
        11.35338           0.800058           0.812855           0.800058           0.812855
        11.39098           0.788569           0.816495           0.788569           0.816495
        11.42857           0.782829           0.822344           0.782829           0.822344
        11.46616           0.782150           0.825399           0.782150           0.825399
        11.50376           0.781704           0.824088           0.781704           0.824088
        11.54135           0.778535           0.822797           0.778535           0.822797
        11.57895           0.776858           0.824151           0.776858           0.824151
        11.61654           0.778695           0.824882           0.778695           0.824882
        11.65413           0.783213           0.822791           0.783213           0.822791
        11.69173           0.788359           0.815396           0.788359           0.815396
        11.72932           0.789036           0.802449           0.789036           0.802449
        11.76692           0.780790           0.789564           0.780790           0.789564
        11.80451           0.767082           0.784572           0.767082           0.784572
        11.84210           0.755741           0.787784           0.755741           0.787784
        11.87970           0.749592           0.794752           0.749592           0.794752
        11.91729           0.748579           0.803634           0.748579           0.803634
        11.95489           0.753967           0.812443           0.753967           0.812443
        11.99248           0.765691           0.818369           0.765691           0.818370
        12.03007           0.783380           0.818222           0.783380           0.818222
        12.06767           0.803644           0.807189           0.803644           0.807189
        12.10526           0.818313           0.784277           0.818314           0.784277
        12.14286           0.820261           0.755650           0.820261           0.755650
        12.18045           0.809429           0.731691           0.809429           0.731691
        12.21804           0.794443           0.718372           0.794443           0.718372
        12.25564           0.783358           0.711888           0.783358           0.711888
        12.29323           0.776731           0.705887           0.776731           0.705887
        12.33083           0.771197           0.697662           0.771197           0.697662
        12.36842           0.763792           0.688293           0.763792           0.688293
        12.40601           0.754138           0.680102           0.754138           0.680102
