#                                                                     
# $$\                                                                 
# $$ |                                                                
# $$ |     $$\   $$\ $$$$$$\$$$$\   $$$$$$\  $$$$$$$\                 
# $$ |     $$ |  $$ |$$  _$$  _$$\ $$  __$$\ $$  __$$\                
# $$ |     $$ |  $$ |$$ / $$ / $$ |$$$$$$$$ |$$ |  $$ |               
# $$ |     $$ |  $$ |$$ | $$ | $$ |$$   ____|$$ |  $$ |               
# $$$$$$$$\\$$$$$$  |$$ | $$ | $$ |\$$$$$$$\ $$ |  $$ |               
# \________|\______/ \__| \__| \__| \_______|\__|  \__|               
#                                                                     
#                   Fork Lumen 2.1.0                                  
#                  Branch is bug-fixes                                
#        MPI+OpenMP+SLK+SLEPC+HDF5_MPI_IO Build                       
#               http://www.lumen-code.org                             
#
# Absorption @ Q(1):   1.00000000      0.00000000      0.00000000    [q->0 direction]
#
# [ X ] Hartree size                              :  1
# [GEN] GF Energies                               : Perdew, Burke & Ernzerhof(X)+Perdew, Burke & Ernzerhof(C)
# [GEN] Green`s Function                          : T-ordered
#
# [GEN] Gauge                                     : Length
# [GEN] [r,Vnl] included                          : yes
#
#    E[1] [eV]          Im(eps)            Re(eps)            Im(eps_o)          Re(eps_o)
#
        5.000000           1.949428           2.752176           1.949429           2.752176
        5.037593           2.114106           2.758563           2.114107           2.758563
        5.075188           2.284154           2.725851           2.284153           2.725851
        5.112782           2.446423           2.666837           2.446424           2.666838
        5.150376           2.609022           2.596392           2.609022           2.596392
        5.187970           2.789089           2.498682           2.789091           2.498682
        5.225564           2.966075           2.353919           2.966075           2.353918
        5.263157           3.125322           2.175601           3.125322           2.175601
        5.300752           3.280073           1.962270           3.280071           1.962270
        5.338346           3.416487           1.675536           3.416487           1.675536
        5.375940           3.460845           1.314952           3.460845           1.314951
        5.413534           3.374655           0.965860           3.374655           0.965860
        5.451128           3.219591           0.691014           3.219591           0.691015
        5.488721           3.041423           0.459737           3.041423           0.459738
        5.526316           2.812343           0.270148           2.812343           0.270149
        5.563910           2.560995           0.171159           2.560995           0.171159
        5.601503           2.349130           0.140042           2.349130           0.140042
        5.639097           2.178696           0.124293           2.178696           0.124293
        5.676692           2.013857           0.110634           2.013858           0.110634
        5.714285           1.847641           0.126170           1.847641           0.126170
        5.751880           1.705112           0.173075           1.705112           0.173074
        5.789474           1.592538           0.231421           1.592538           0.231421
        5.827067           1.500200           0.293463           1.500200           0.293464
        5.864661           1.429427           0.362207           1.429427           0.362206
        5.902255           1.384465           0.423357           1.384465           0.423357
        5.939849           1.344453           0.470868           1.344453           0.470868
        5.977444           1.307931           0.524195           1.307931           0.524195
        6.015037           1.289511           0.577609           1.289511           0.577609
        6.052631           1.279946           0.623814           1.279946           0.623814
        6.090225           1.284176           0.673634           1.284175           0.673634
        6.127820           1.317661           0.709476           1.317661           0.709476
        6.165413           1.360674           0.708895           1.360674           0.708894
        6.203007           1.389066           0.681674           1.389066           0.681674
        6.240601           1.402933           0.643211           1.402933           0.643211
        6.278195           1.404756           0.591293           1.404756           0.591293
        6.315789           1.382117           0.528519           1.382117           0.528519
        6.353383           1.331857           0.469608           1.331857           0.469608
        6.390977           1.252977           0.425661           1.252977           0.425661
        6.428571           1.155720           0.421898           1.155720           0.421898
        6.466165           1.079011           0.460376           1.079011           0.460376
        6.503759           1.039367           0.508297           1.039367           0.508298
        6.541353           1.023637           0.544546           1.023637           0.544546
        6.578947           1.019182           0.563371           1.019182           0.563371
        6.616541           1.012586           0.562091           1.012586           0.562091
        6.654135           0.987692           0.549847           0.987692           0.549847
        6.691729           0.943468           0.548457           0.943468           0.548457
        6.729323           0.898373           0.568806           0.898373           0.568806
        6.766917           0.868141           0.601523           0.868141           0.601523
        6.804511           0.853600           0.633522           0.853600           0.633522
        6.842104           0.849795           0.656710           0.849795           0.656710
        6.879699           0.846458           0.668542           0.846458           0.668541
        6.917293           0.839483           0.676905           0.839482           0.676905
        6.954887           0.833197           0.682616           0.833197           0.682616
        6.992481           0.826323           0.681553           0.826323           0.681553
        7.030074           0.810772           0.672269           0.810772           0.672269
        7.067669           0.779274           0.666286           0.779274           0.666286
        7.105263           0.741938           0.674989           0.741938           0.674989
        7.142857           0.708761           0.693405           0.708761           0.693405
        7.180451           0.678639           0.717739           0.678639           0.717740
        7.218045           0.654209           0.749557           0.654209           0.749557
        7.255639           0.640050           0.783690           0.640050           0.783690
        7.293232           0.632075           0.813909           0.632075           0.813909
        7.330826           0.625445           0.843077           0.625445           0.843077
        7.368421           0.623696           0.873387           0.623696           0.873387
        7.406014           0.627738           0.899936           0.627738           0.899936
        7.443608           0.632467           0.921012           0.632467           0.921012
        7.481203           0.634017           0.940750           0.634017           0.940750
        7.518797           0.635368           0.965994           0.635368           0.965994
        7.556391           0.646482           0.995538           0.646482           0.995538
        7.593984           0.670220           1.018351           0.670220           1.018351
        7.631578           0.699204           1.025162           0.699204           1.025162
        7.669173           0.718670           1.014830           0.718670           1.014830
        7.706767           0.717353           1.002993           0.717353           1.002993
        7.744360           0.707333           1.007497           0.707333           1.007497
        7.781955           0.706285           1.021104           0.706285           1.021103
        7.819549           0.709983           1.030979           0.709983           1.030979
        7.857142           0.710149           1.040683           0.710150           1.040683
        7.894736           0.710092           1.057494           0.710092           1.057494
        7.932330           0.717731           1.079180           0.717731           1.079180
        7.969924           0.731709           1.100168           0.731709           1.100168
        8.007519           0.752536           1.123525           0.752536           1.123525
        8.045113           0.787874           1.144218           0.787874           1.144218
        8.082706           0.835177           1.150931           0.835177           1.150931
        8.120299           0.885475           1.138707           0.885475           1.138707
        8.157894           0.929485           1.107917           0.929485           1.107917
        8.195488           0.959287           1.063794           0.959288           1.063794
        8.233082           0.971890           1.015633           0.971890           1.015633
        8.270677           0.971673           0.969760           0.971673           0.969760
        8.308270           0.960591           0.925585           0.960591           0.925585
        8.345864           0.934635           0.887272           0.934635           0.887272
        8.383458           0.898537           0.866614           0.898537           0.866614
        8.421052           0.868214           0.865609           0.868214           0.865609
        8.458646           0.854515           0.871612           0.854515           0.871612
        8.496240           0.852740           0.869160           0.852740           0.869161
        8.533834           0.848639           0.855156           0.848639           0.855156
        8.571428           0.833894           0.840095           0.833894           0.840095
        8.609021           0.815892           0.835389           0.815892           0.835389
        8.646616           0.809666           0.836323           0.809666           0.836323
        8.684210           0.814225           0.821717           0.814225           0.821717
        8.721804           0.801967           0.787385           0.801967           0.787385
        8.759398           0.763214           0.762200           0.763214           0.762200
        8.796992           0.720216           0.759835           0.720216           0.759835
        8.834586           0.687351           0.768236           0.687350           0.768236
        8.872180           0.659856           0.776065           0.659856           0.776065
        8.909773           0.630488           0.785471           0.630488           0.785471
        8.947368           0.600417           0.801320           0.600417           0.801320
        8.984962           0.573359           0.824808           0.573359           0.824808
        9.022555           0.553243           0.854178           0.553243           0.854178
        9.060150           0.540751           0.885310           0.540751           0.885310
        9.097744           0.534608           0.917321           0.534608           0.917321
        9.135338           0.536576           0.948457           0.536576           0.948457
        9.172933           0.544497           0.974206           0.544497           0.974206
        9.210526           0.553333           0.994918           0.553333           0.994918
        9.248120           0.561539           1.014714           0.561539           1.014714
        9.285713           0.572666           1.036632           0.572666           1.036632
        9.323307           0.591649           1.057698           0.591649           1.057698
        9.360902           0.617465           1.071562           0.617465           1.071562
        9.398496           0.645705           1.076963           0.645705           1.076963
        9.436090           0.675614           1.072772           0.675614           1.072772
        9.473684           0.701661           1.055038           0.701661           1.055038
        9.511277           0.714452           1.027819           0.714452           1.027819
        9.548872           0.711483           1.001240           0.711483           1.001240
        9.586466           0.697989           0.983109           0.697989           0.983109
        9.624060           0.680724           0.974150           0.680724           0.974150
        9.661654           0.661997           0.973300           0.661997           0.973300
        9.699247           0.645439           0.981478           0.645439           0.981478
        9.736841           0.635461           0.994663           0.635461           0.994663
        9.774436           0.629710           1.008417           0.629710           1.008417
        9.812029           0.626405           1.025556           0.626405           1.025556
        9.849624           0.631202           1.046532           0.631202           1.046532
        9.887218           0.647295           1.064224           0.647295           1.064224
        9.924811           0.670503           1.070756           0.670503           1.070757
        9.962406           0.691390           1.063509           0.691390           1.063509
        9.999999           0.700191           1.048299           0.700191           1.048299
        10.03759           0.696587           1.038209           0.696586           1.038209
        10.07519           0.692021           1.038498           0.692021           1.038498
        10.11278           0.693795           1.041603           0.693795           1.041603
        10.15038           0.696884           1.040134           0.696884           1.040134
        10.18797           0.694144           1.039038           0.694144           1.039037
        10.22556           0.690944           1.045839           0.690945           1.045838
        10.26316           0.695493           1.056083           0.695493           1.056083
        10.30075           0.705510           1.062110           0.705510           1.062110
        10.33835           0.715817           1.064016           0.715817           1.064016
        10.37594           0.725680           1.063790           0.725680           1.063790
        10.41353           0.734985           1.061117           0.734985           1.061117
        10.45113           0.741131           1.056406           0.741131           1.056406
        10.48872           0.743533           1.054394           0.743533           1.054394
        10.52631           0.747480           1.057205           0.747480           1.057205
        10.56391           0.756815           1.061302           0.756815           1.061302
        10.60150           0.771526           1.061575           0.771526           1.061575
        10.63910           0.787022           1.054105           0.787022           1.054105
        10.67669           0.796533           1.040329           0.796533           1.040329
        10.71428           0.796846           1.027456           0.796846           1.027456
        10.75188           0.792318           1.022398           0.792318           1.022398
        10.78947           0.790410           1.025415           0.790410           1.025414
        10.82707           0.794412           1.033048           0.794412           1.033048
        10.86466           0.807362           1.042595           0.807362           1.042595
        10.90225           0.830642           1.047571           0.830642           1.047571
        10.93985           0.860340           1.041752           0.860341           1.041752
        10.97744           0.889580           1.023663           0.889580           1.023663
        11.01504           0.914613           0.994690           0.914613           0.994690
        11.05263           0.930149           0.954683           0.930149           0.954682
        11.09022           0.928463           0.909637           0.928463           0.909637
        11.12782           0.909513           0.872241           0.909513           0.872241
        11.16541           0.883461           0.849262           0.883461           0.849262
        11.20301           0.859040           0.838578           0.859039           0.838578
        11.24060           0.840796           0.834411           0.840796           0.834411
        11.27819           0.827123           0.830774           0.827123           0.830774
        11.31579           0.813793           0.827249           0.813793           0.827249
        11.35338           0.800158           0.826561           0.800158           0.826561
        11.39098           0.788688           0.830231           0.788688           0.830231
        11.42857           0.782950           0.836092           0.782950           0.836092
        11.46616           0.782255           0.839174           0.782255           0.839174
        11.50376           0.781793           0.837902           0.781793           0.837903
        11.54135           0.778620           0.836664           0.778620           0.836664
        11.57895           0.776955           0.838067           0.776955           0.838067
        11.61654           0.778814           0.838834           0.778814           0.838834
        11.65413           0.783346           0.836761           0.783346           0.836761
        11.69173           0.788487           0.829376           0.788487           0.829376
        11.72932           0.789138           0.816453           0.789138           0.816453
        11.76692           0.780868           0.803622           0.780868           0.803622
        11.80451           0.767159           0.798687           0.767160           0.798687
        11.84210           0.755827           0.801944           0.755827           0.801944
        11.87970           0.749679           0.808952           0.749679           0.808952
        11.91729           0.748665           0.817880           0.748665           0.817880
        11.95489           0.754060           0.826740           0.754060           0.826740
        11.99248           0.765800           0.832713           0.765800           0.832713
        12.03007           0.783505           0.832595           0.783505           0.832595
        12.06767           0.803769           0.821592           0.803769           0.821592
        12.10526           0.818436           0.798723           0.818436           0.798722
        12.14286           0.820391           0.770140           0.820391           0.770140
        12.18045           0.809577           0.746218           0.809577           0.746218
        12.21804           0.794601           0.732917           0.794601           0.732917
        12.25564           0.783502           0.726449           0.783502           0.726449
        12.29323           0.776847           0.720491           0.776847           0.720491
        12.33083           0.771301           0.712328           0.771301           0.712328
        12.36842           0.763908           0.703019           0.763908           0.703020
        12.40601           0.754269           0.694864           0.754269           0.694864
