#                                                                     
# $$\                                                                 
# $$ |                                                                
# $$ |     $$\   $$\ $$$$$$\$$$$\   $$$$$$\  $$$$$$$\                 
# $$ |     $$ |  $$ |$$  _$$  _$$\ $$  __$$\ $$  __$$\                
# $$ |     $$ |  $$ |$$ / $$ / $$ |$$$$$$$$ |$$ |  $$ |               
# $$ |     $$ |  $$ |$$ | $$ | $$ |$$   ____|$$ |  $$ |               
# $$$$$$$$\\$$$$$$  |$$ | $$ | $$ |\$$$$$$$\ $$ |  $$ |               
# \________|\______/ \__| \__| \__| \_______|\__|  \__|               
#                                                                     
#                   Fork Lumen 2.1.0                                  
#                  Branch is bug-fixes                                
#        MPI+OpenMP+SLK+SLEPC+HDF5_MPI_IO Build                       
#               http://www.lumen-code.org                             
#
# Absorption @ Q(1):   1.00000000      0.00000000      0.00000000    [q->0 direction]
#
# [ X ] Hartree size                              :  1
# [GEN] GF Energies                               : Perdew, Burke & Ernzerhof(X)+Perdew, Burke & Ernzerhof(C)
# [GEN] Green`s Function                          : T-ordered
#
# [GEN] Gauge                                     : Length
# [GEN] [r,Vnl] included                          : yes
#
#    E[1] [eV]          Im(eps)            Re(eps)            Im(eps_o)          Re(eps_o)
#
        5.000000           1.949436           2.756265           1.949436           2.756265
        5.037593           2.114111           2.762655           2.114111           2.762654
        5.075188           2.284156           2.729946           2.284157           2.729946
        5.112782           2.446426           2.670936           2.446426           2.670936
        5.150376           2.609023           2.600493           2.609025           2.600493
        5.187970           2.789093           2.502785           2.789093           2.502785
        5.225564           2.966077           2.358024           2.966078           2.358024
        5.263157           3.125309           2.179708           3.125309           2.179708
        5.300752           3.280061           1.966381           3.280061           1.966381
        5.338346           3.416476           1.679649           3.416476           1.679648
        5.375940           3.460834           1.319067           3.460834           1.319067
        5.413534           3.374644           0.969980           3.374643           0.969979
        5.451128           3.219578           0.695140           3.219579           0.695137
        5.488721           3.041411           0.463861           3.041412           0.463862
        5.526316           2.812344           0.274276           2.812344           0.274276
        5.563910           2.560997           0.175289           2.560997           0.175289
        5.601503           2.349133           0.144174           2.349133           0.144173
        5.639097           2.178699           0.128428           2.178699           0.128427
        5.676692           2.013866           0.114772           2.013866           0.114772
        5.714285           1.847649           0.130313           1.847649           0.130313
        5.751880           1.705120           0.177219           1.705120           0.177219
        5.789474           1.592546           0.235569           1.592546           0.235570
        5.827067           1.500211           0.297614           1.500211           0.297614
        5.864661           1.429437           0.366360           1.429437           0.366360
        5.902255           1.384475           0.427513           1.384475           0.427513
        5.939849           1.344465           0.475028           1.344464           0.475028
        5.977444           1.307943           0.528357           1.307943           0.528358
        6.015037           1.289523           0.581773           1.289523           0.581773
        6.052631           1.279957           0.627983           1.279957           0.627983
        6.090225           1.284186           0.677806           1.284186           0.677806
        6.127820           1.317672           0.713651           1.317672           0.713651
        6.165413           1.360685           0.713073           1.360685           0.713073
        6.203007           1.389076           0.685857           1.389076           0.685857
        6.240601           1.402943           0.647397           1.402943           0.647397
        6.278195           1.404765           0.595480           1.404765           0.595480
        6.315789           1.382128           0.532709           1.382128           0.532709
        6.353383           1.331868           0.473804           1.331868           0.473803
        6.390977           1.252989           0.429861           1.252989           0.429861
        6.428571           1.155736           0.426100           1.155736           0.426100
        6.466165           1.079026           0.464580           1.079026           0.464580
        6.503759           1.039382           0.512506           1.039382           0.512506
        6.541353           1.023652           0.548759           1.023652           0.548759
        6.578947           1.019198           0.567587           1.019198           0.567587
        6.616541           1.012603           0.566312           1.012602           0.566312
        6.654135           0.987708           0.554070           0.987708           0.554070
        6.691729           0.943483           0.552684           0.943483           0.552684
        6.729323           0.898389           0.573038           0.898389           0.573038
        6.766917           0.868157           0.605757           0.868157           0.605757
        6.804511           0.853617           0.637759           0.853617           0.637759
        6.842104           0.849812           0.660953           0.849812           0.660953
        6.879699           0.846475           0.672787           0.846475           0.672787
        6.917293           0.839499           0.681154           0.839499           0.681154
        6.954887           0.833214           0.686870           0.833214           0.686870
        6.992481           0.826339           0.685810           0.826339           0.685810
        7.030074           0.810789           0.676528           0.810789           0.676528
        7.067669           0.779292           0.670551           0.779292           0.670551
        7.105263           0.741954           0.679256           0.741954           0.679256
        7.142857           0.708780           0.697677           0.708780           0.697677
        7.180451           0.678658           0.722015           0.678658           0.722015
        7.218045           0.654228           0.753836           0.654228           0.753836
        7.255639           0.640068           0.787973           0.640068           0.787973
        7.293232           0.632093           0.818197           0.632093           0.818197
        7.330826           0.625464           0.847369           0.625464           0.847369
        7.368421           0.623714           0.877683           0.623714           0.877683
        7.406014           0.627757           0.904236           0.627757           0.904236
        7.443608           0.632486           0.925317           0.632486           0.925317
        7.481203           0.634035           0.945057           0.634035           0.945057
        7.518797           0.635386           0.970306           0.635386           0.970306
        7.556391           0.646501           0.999856           0.646501           0.999856
        7.593984           0.670240           1.022672           0.670240           1.022672
        7.631578           0.699222           1.029488           0.699223           1.029488
        7.669173           0.718688           1.019161           0.718688           1.019161
        7.706767           0.717372           1.007327           0.717372           1.007327
        7.744360           0.707353           1.011836           0.707353           1.011836
        7.781955           0.706304           1.025447           0.706304           1.025446
        7.819549           0.710002           1.035327           0.710002           1.035327
        7.857142           0.710169           1.045035           0.710169           1.045035
        7.894736           0.710112           1.061851           0.710111           1.061851
        7.932330           0.717750           1.083541           0.717750           1.083541
        7.969924           0.731727           1.104534           0.731727           1.104534
        8.007519           0.752555           1.127896           0.752555           1.127896
        8.045113           0.787893           1.148594           0.787893           1.148593
        8.082706           0.835196           1.155310           0.835196           1.155310
        8.120299           0.885495           1.143092           0.885495           1.143092
        8.157894           0.929505           1.112307           0.929505           1.112307
        8.195488           0.959307           1.068188           0.959307           1.068188
        8.233082           0.971909           1.020033           0.971909           1.020033
        8.270677           0.971692           0.974164           0.971692           0.974164
        8.308270           0.960609           0.929993           0.960609           0.929993
        8.345864           0.934654           0.891686           0.934654           0.891685
        8.383458           0.898555           0.871032           0.898555           0.871032
        8.421052           0.868234           0.870032           0.868234           0.870032
        8.458646           0.854537           0.876040           0.854537           0.876040
        8.496240           0.852762           0.873594           0.852762           0.873594
        8.533834           0.848659           0.859594           0.848659           0.859594
        8.571428           0.833913           0.844539           0.833913           0.844538
        8.609021           0.815914           0.839838           0.815914           0.839838
        8.646616           0.809687           0.840777           0.809687           0.840777
        8.684210           0.814246           0.826177           0.814246           0.826177
        8.721804           0.801989           0.791850           0.801990           0.791850
        8.759398           0.763236           0.766671           0.763236           0.766671
        8.796992           0.720238           0.764311           0.720238           0.764311
        8.834586           0.687373           0.772716           0.687373           0.772716
        8.872180           0.659878           0.780551           0.659878           0.780551
        8.909773           0.630510           0.789962           0.630510           0.789962
        8.947368           0.600439           0.805818           0.600439           0.805818
        8.984962           0.573382           0.829311           0.573382           0.829311
        9.022555           0.553265           0.858686           0.553265           0.858686
        9.060150           0.540773           0.889824           0.540773           0.889824
        9.097744           0.534630           0.921840           0.534630           0.921840
        9.135338           0.536598           0.952982           0.536598           0.952982
        9.172933           0.544519           0.978736           0.544519           0.978736
        9.210526           0.553356           0.999454           0.553356           0.999454
        9.248120           0.561562           1.019257           0.561562           1.019257
        9.285713           0.572689           1.041181           0.572689           1.041181
        9.323307           0.591672           1.062251           0.591672           1.062251
        9.360902           0.617489           1.076123           0.617488           1.076123
        9.398496           0.645729           1.081529           0.645729           1.081529
        9.436090           0.675638           1.077344           0.675638           1.077344
        9.473684           0.701684           1.059617           0.701684           1.059617
        9.511277           0.714475           1.032403           0.714476           1.032403
        9.548872           0.711506           1.005830           0.711506           1.005830
        9.586466           0.698013           0.987706           0.698013           0.987706
        9.624060           0.680748           0.978752           0.680748           0.978752
        9.661654           0.662022           0.977908           0.662022           0.977908
        9.699247           0.645464           0.986093           0.645464           0.986093
        9.736841           0.635486           0.999285           0.635486           0.999285
        9.774436           0.629734           1.013047           0.629734           1.013047
        9.812029           0.626430           1.030192           0.626430           1.030192
        9.849624           0.631227           1.051173           0.631227           1.051173
        9.887218           0.647322           1.068874           0.647322           1.068874
        9.924811           0.670530           1.075413           0.670530           1.075413
        9.962406           0.691418           1.068172           0.691418           1.068172
        9.999999           0.700221           1.052967           0.700221           1.052968
        10.03759           0.696617           1.042883           0.696617           1.042883
        10.07519           0.692051           1.043176           0.692051           1.043176
        10.11278           0.693824           1.046288           0.693824           1.046288
        10.15038           0.696911           1.044827           0.696911           1.044827
        10.18797           0.694170           1.043739           0.694170           1.043739
        10.22556           0.690974           1.050550           0.690974           1.050550
        10.26316           0.695526           1.060803           0.695526           1.060803
        10.30075           0.705547           1.066834           0.705547           1.066834
        10.33835           0.715858           1.068742           0.715858           1.068742
        10.37594           0.725720           1.068519           0.725720           1.068519
        10.41353           0.735024           1.065851           0.735024           1.065852
        10.45113           0.741171           1.061143           0.741171           1.061143
        10.48872           0.743572           1.059132           0.743572           1.059132
        10.52631           0.747512           1.061947           0.747512           1.061947
        10.56391           0.756840           1.066051           0.756840           1.066051
        10.60150           0.771544           1.066333           0.771544           1.066333
        10.63910           0.787034           1.058878           0.787034           1.058878
        10.67669           0.796545           1.045113           0.796545           1.045113
        10.71428           0.796858           1.032253           0.796858           1.032253
        10.75188           0.792336           1.027208           0.792336           1.027207
        10.78947           0.790432           1.030231           0.790431           1.030231
        10.82707           0.794433           1.037871           0.794433           1.037871
        10.86466           0.807385           1.047427           0.807384           1.047427
        10.90225           0.830668           1.052410           0.830668           1.052410
        10.93985           0.860362           1.046599           0.860362           1.046600
        10.97744           0.889601           1.028521           0.889601           1.028521
        11.01504           0.914636           0.999558           0.914636           0.999558
        11.05263           0.930176           0.959559           0.930176           0.959559
        11.09022           0.928490           0.914521           0.928490           0.914521
        11.12782           0.909544           0.877135           0.909544           0.877135
        11.16541           0.883494           0.854161           0.883494           0.854161
        11.20301           0.859075           0.843480           0.859075           0.843480
        11.24060           0.840831           0.839320           0.840831           0.839320
        11.27819           0.827151           0.835690           0.827150           0.835690
        11.31579           0.813821           0.832179           0.813821           0.832179
        11.35338           0.800185           0.831499           0.800185           0.831499
        11.39098           0.788719           0.835178           0.788719           0.835178
        11.42857           0.782981           0.841047           0.782981           0.841047
        11.46616           0.782284           0.844135           0.782284           0.844135
        11.50376           0.781824           0.842875           0.781824           0.842875
        11.54135           0.778651           0.841649           0.778651           0.841650
        11.57895           0.776993           0.843067           0.776993           0.843067
        11.61654           0.778862           0.843837           0.778862           0.843837
        11.65413           0.783395           0.841768           0.783395           0.841768
        11.69173           0.788538           0.834388           0.788538           0.834388
        11.72932           0.789189           0.821469           0.789189           0.821469
        11.76692           0.780914           0.808640           0.780914           0.808640
        11.80451           0.767201           0.803722           0.767201           0.803722
        11.84210           0.755872           0.806988           0.755872           0.806988
        11.87970           0.749724           0.813999           0.749724           0.813999
        11.91729           0.748709           0.822937           0.748709           0.822937
        11.95489           0.754107           0.831805           0.754107           0.831805
        11.99248           0.765848           0.837780           0.765848           0.837780
        12.03007           0.783546           0.837666           0.783546           0.837666
        12.06767           0.803805           0.826669           0.803805           0.826669
        12.10526           0.818466           0.803810           0.818466           0.803810
        12.14286           0.820412           0.775237           0.820412           0.775237
        12.18045           0.809587           0.751331           0.809587           0.751331
        12.21804           0.794605           0.738058           0.794605           0.738058
        12.25564           0.783521           0.731619           0.783522           0.731619
        12.29323           0.776892           0.725663           0.776892           0.725663
        12.33083           0.771349           0.717489           0.771349           0.717489
        12.36842           0.763940           0.708178           0.763940           0.708178
        12.40601           0.754287           0.700040           0.754286           0.700040
