#                                                                     
# $$\                                                                 
# $$ |                                                                
# $$ |     $$\   $$\ $$$$$$\$$$$\   $$$$$$\  $$$$$$$\                 
# $$ |     $$ |  $$ |$$  _$$  _$$\ $$  __$$\ $$  __$$\                
# $$ |     $$ |  $$ |$$ / $$ / $$ |$$$$$$$$ |$$ |  $$ |               
# $$ |     $$ |  $$ |$$ | $$ | $$ |$$   ____|$$ |  $$ |               
# $$$$$$$$\\$$$$$$  |$$ | $$ | $$ |\$$$$$$$\ $$ |  $$ |               
# \________|\______/ \__| \__| \__| \_______|\__|  \__|               
#                                                                     
#                   Fork Lumen 2.1.0                                  
#                  Branch is bug-fixes                                
#        MPI+OpenMP+SLK+SLEPC+HDF5_MPI_IO Build                       
#               http://www.lumen-code.org                             
#
# Absorption @ Q(1):   1.00000000      0.00000000      0.00000000    [q->0 direction]
#
# [ X ] Hartree size                              :  1
# [GEN] GF Energies                               : Perdew, Burke & Ernzerhof(X)+Perdew, Burke & Ernzerhof(C)
# [GEN] Green`s Function                          : T-ordered
#
# [GEN] Gauge                                     : Length
# [GEN] [r,Vnl] included                          : yes
#
#    E[1] [eV]          Im(eps)            Re(eps)            Im(eps_o)          Re(eps_o)
#
        5.000000           0.547175           2.013441           0.547176           2.013441
        5.037593           0.580372           2.058332           0.580372           2.058332
        5.075188           0.621997           2.097198           0.621997           2.097198
        5.112782           0.672464           2.130256           0.672464           2.130255
        5.150376           0.733236           2.151219           0.733236           2.151219
        5.187970           0.795917           2.151628           0.795917           2.151628
        5.225564           0.846475           2.134054           0.846476           2.134054
        5.263157           0.877675           2.109589           0.877675           2.109589
        5.300752           0.889599           2.090513           0.889599           2.090513
        5.338346           0.890766           2.087488           0.890767           2.087488
        5.375940           0.892938           2.099565           0.892938           2.099565
        5.413534           0.898009           2.124497           0.898009           2.124497
        5.451128           0.914424           2.166129           0.914424           2.166129
        5.488721           0.955429           2.214480           0.955429           2.214480
        5.526316           1.019490           2.253212           1.019490           2.253212
        5.563910           1.098842           2.274396           1.098842           2.274396
        5.601503           1.184597           2.271020           1.184596           2.271019
        5.639097           1.259764           2.243695           1.259764           2.243695
        5.676692           1.316781           2.208653           1.316781           2.208653
        5.714285           1.364622           2.171648           1.364622           2.171648
        5.751880           1.396170           2.126896           1.396170           2.126896
        5.789474           1.399169           2.096470           1.399169           2.096470
        5.827067           1.400411           2.103502           1.400410           2.103502
        5.864661           1.427659           2.129313           1.427659           2.129313
        5.902255           1.470804           2.153842           1.470804           2.153842
        5.939849           1.523566           2.191972           1.523566           2.191972
        5.977444           1.615559           2.245847           1.615559           2.245847
        6.015037           1.762488           2.279444           1.762488           2.279444
        6.052631           1.940568           2.260626           1.940569           2.260626
        6.090225           2.122096           2.196181           2.122095           2.196181
        6.127820           2.317184           2.088110           2.317184           2.088110
        6.165413           2.511157           1.897166           2.511157           1.897166
        6.203007           2.635460           1.620722           2.635460           1.620721
        6.240601           2.649264           1.326611           2.649264           1.326611
        6.278195           2.594005           1.076584           2.594005           1.076585
        6.315789           2.517358           0.849464           2.517357           0.849464
        6.353383           2.392332           0.618935           2.392332           0.618934
        6.390977           2.188651           0.429722           2.188651           0.429722
        6.428571           1.947822           0.334882           1.947822           0.334882
        6.466165           1.732702           0.325601           1.732702           0.325602
        6.503759           1.567344           0.358339           1.567344           0.358339
        6.541353           1.440444           0.403634           1.440444           0.403634
        6.578947           1.337998           0.455779           1.337998           0.455779
        6.616541           1.260004           0.517117           1.260003           0.517117
        6.654135           1.210177           0.577164           1.210177           0.577164
        6.691729           1.180455           0.628852           1.180455           0.628852
        6.729323           1.168944           0.667978           1.168944           0.667978
        6.766917           1.164020           0.686678           1.164020           0.686678
        6.804511           1.154235           0.692587           1.154235           0.692587
        6.842104           1.138074           0.692322           1.138074           0.692322
        6.879699           1.116480           0.692244           1.116480           0.692244
        6.917293           1.093774           0.692208           1.093773           0.692208
        6.954887           1.067649           0.691146           1.067649           0.691146
        6.992481           1.035745           0.692867           1.035745           0.692867
        7.030074           1.001046           0.703971           1.001046           0.703970
        7.067669           0.972521           0.725156           0.972521           0.725156
        7.105263           0.955534           0.748215           0.955534           0.748215
        7.142857           0.943572           0.765554           0.943572           0.765555
        7.180451           0.929724           0.783099           0.929724           0.783099
        7.218045           0.920174           0.807354           0.920174           0.807354
        7.255639           0.922662           0.833093           0.922662           0.833093
        7.293232           0.935879           0.853439           0.935880           0.853439
        7.330826           0.958569           0.864296           0.958569           0.864296
        7.368421           0.984187           0.861137           0.984187           0.861137
        7.406014           1.010807           0.848379           1.010807           0.848379
        7.443608           1.040443           0.815125           1.040443           0.815125
        7.481203           1.049270           0.756108           1.049270           0.756108
        7.518797           1.023204           0.695405           1.023204           0.695405
        7.556391           0.971659           0.653389           0.971659           0.653389
        7.593984           0.910864           0.639899           0.910864           0.639899
        7.631578           0.861407           0.652212           0.861407           0.652212
        7.669173           0.834488           0.672705           0.834488           0.672705
        7.706767           0.825218           0.684281           0.825218           0.684281
        7.744360           0.819973           0.676549           0.819973           0.676549
        7.781955           0.796659           0.654275           0.796659           0.654275
        7.819549           0.750431           0.644132           0.750431           0.644132
        7.857142           0.704185           0.657837           0.704185           0.657837
        7.894736           0.671834           0.682178           0.671834           0.682178
        7.932330           0.649546           0.706346           0.649546           0.706346
        7.969924           0.633288           0.729835           0.633288           0.729835
        8.007519           0.622987           0.750939           0.622987           0.750939
        8.045113           0.616333           0.767201           0.616333           0.767201
        8.082706           0.608313           0.777114           0.608313           0.777114
        8.120299           0.592881           0.786835           0.592881           0.786835
        8.157894           0.575080           0.805076           0.575080           0.805077
        8.195488           0.563294           0.830106           0.563294           0.830107
        8.233082           0.560137           0.856888           0.560137           0.856888
        8.270677           0.565412           0.879974           0.565412           0.879974
        8.308270           0.573636           0.895735           0.573636           0.895735
        8.345864           0.580789           0.908772           0.580789           0.908772
        8.383458           0.592029           0.920603           0.592029           0.920603
        8.421052           0.606987           0.924359           0.606987           0.924359
        8.458646           0.619543           0.919181           0.619543           0.919181
        8.496240           0.625537           0.905579           0.625537           0.905579
        8.533834           0.618011           0.889006           0.618011           0.889006
        8.571428           0.599213           0.880227           0.599213           0.880227
        8.609021           0.577721           0.882167           0.577721           0.882167
        8.646616           0.558747           0.891489           0.558747           0.891489
        8.684210           0.542461           0.904630           0.542461           0.904630
        8.721804           0.527180           0.921913           0.527180           0.921913
        8.759398           0.515631           0.946235           0.515631           0.946235
        8.796992           0.513980           0.973941           0.513980           0.973941
        8.834586           0.520071           0.997396           0.520071           0.997396
        8.872180           0.528098           1.016357           0.528098           1.016357
        8.909773           0.536096           1.033803           0.536096           1.033803
        8.947368           0.545677           1.052916           0.545677           1.052916
        8.984962           0.561401           1.071962           0.561401           1.071962
        9.022555           0.581206           1.085352           0.581206           1.085352
        9.060150           0.599211           1.095463           0.599211           1.095462
        9.097744           0.618624           1.108538           0.618624           1.108538
        9.135338           0.646501           1.121271           0.646501           1.121271
        9.172933           0.681781           1.126850           0.681781           1.126850
        9.210526           0.721343           1.123943           0.721343           1.123943
        9.248120           0.765811           1.109181           0.765810           1.109181
        9.285713           0.808159           1.075178           0.808159           1.075178
        9.323307           0.834610           1.024868           0.834610           1.024868
        9.360902           0.839976           0.971947           0.839976           0.971947
        9.398496           0.830564           0.925230           0.830564           0.925230
        9.436090           0.810757           0.886241           0.810757           0.886241
        9.473684           0.783027           0.858998           0.783027           0.858998
        9.511277           0.756741           0.847371           0.756741           0.847371
        9.548872           0.744853           0.842845           0.744854           0.842845
        9.586466           0.743266           0.824884           0.743265           0.824884
        9.624060           0.728477           0.793515           0.728477           0.793515
        9.661654           0.697301           0.768519           0.697301           0.768519
        9.699247           0.661160           0.755886           0.661160           0.755886
        9.736841           0.625986           0.751986           0.625986           0.751986
        9.774436           0.591868           0.754891           0.591868           0.754891
        9.812029           0.561212           0.764733           0.561212           0.764733
        9.849624           0.535755           0.778133           0.535755           0.778133
        9.887218           0.513326           0.792661           0.513326           0.792661
        9.924811           0.491856           0.810472           0.491856           0.810472
        9.962406           0.474780           0.833838           0.474780           0.833838
        9.999999           0.465675           0.859462           0.465675           0.859462
        10.03759           0.463807           0.883242           0.463807           0.883242
        10.07519           0.467131           0.903318           0.467131           0.903318
        10.11278           0.473747           0.917951           0.473747           0.917951
        10.15038           0.478972           0.926913           0.478972           0.926913
        10.18797           0.480390           0.935669           0.480390           0.935669
        10.22556           0.482920           0.947786           0.482920           0.947786
        10.26316           0.490593           0.959385           0.490593           0.959385
        10.30075           0.501103           0.966339           0.501103           0.966339
        10.33835           0.511296           0.969136           0.511296           0.969136
        10.37594           0.520675           0.968692           0.520675           0.968692
        10.41353           0.527948           0.965004           0.527948           0.965004
        10.45113           0.532361           0.960199           0.532361           0.960199
        10.48872           0.535794           0.954227           0.535794           0.954227
        10.52631           0.536075           0.944947           0.536075           0.944947
        10.56391           0.529720           0.935646           0.529721           0.935646
        10.60150           0.518446           0.930714           0.518446           0.930714
        10.63910           0.505361           0.931519           0.505361           0.931519
        10.67669           0.493809           0.937822           0.493809           0.937822
        10.71428           0.485131           0.946604           0.485131           0.946604
        10.75188           0.477675           0.957912           0.477675           0.957912
        10.78947           0.474242           0.973158           0.474242           0.973158
        10.82707           0.477389           0.988181           0.477389           0.988181
        10.86466           0.483961           0.999814           0.483961           0.999814
        10.90225           0.491882           1.009425           0.491882           1.009425
        10.93985           0.501848           1.017553           0.501848           1.017553
        10.97744           0.514540           1.023234           0.514540           1.023234
        11.01504           0.529410           1.023888           0.529411           1.023888
        11.05263           0.542298           1.018170           0.542298           1.018170
        11.09022           0.549966           1.010173           0.549967           1.010173
        11.12782           0.555379           1.002999           0.555379           1.002999
        11.16541           0.559854           0.994435           0.559854           0.994435
        11.20301           0.561025           0.984706           0.561025           0.984706
        11.24060           0.559783           0.976220           0.559783           0.976220
        11.27819           0.557575           0.967155           0.557575           0.967155
        11.31579           0.550898           0.957209           0.550898           0.957209
        11.35338           0.538859           0.950950           0.538858           0.950950
        11.39098           0.525069           0.951729           0.525069           0.951729
        11.42857           0.514802           0.958677           0.514802           0.958677
        11.46616           0.509983           0.967142           0.509983           0.967142
        11.50376           0.508515           0.974158           0.508515           0.974158
        11.54135           0.508504           0.979380           0.508504           0.979380
        11.57895           0.508540           0.982546           0.508539           0.982546
        11.61654           0.506261           0.984875           0.506261           0.984875
        11.65413           0.502024           0.990341           0.502024           0.990341
        11.69173           0.500733           0.999544           0.500733           0.999544
        11.72932           0.503566           1.007839           0.503566           1.007839
        11.76692           0.507325           1.014136           0.507325           1.014136
        11.80451           0.511715           1.020100           0.511715           1.020100
        11.84210           0.517926           1.024906           0.517926           1.024906
        11.87970           0.524564           1.026681           0.524564           1.026681
        11.91729           0.528857           1.026350           0.528857           1.026350
        11.95489           0.530658           1.026535           0.530658           1.026535
        11.99248           0.531037           1.027995           0.531037           1.027995
        12.03007           0.529791           1.031660           0.529791           1.031660
        12.06767           0.528876           1.040090           0.528877           1.040090
        12.10526           0.532839           1.052181           0.532839           1.052181
        12.14286           0.542508           1.063483           0.542508           1.063483
        12.18045           0.555704           1.072139           0.555704           1.072139
        12.21804           0.570942           1.077705           0.570942           1.077705
        12.25564           0.586970           1.081768           0.586970           1.081767
        12.29323           0.607669           1.084664           0.607669           1.084664
        12.33083           0.633227           1.078954           0.633227           1.078954
        12.36842           0.654291           1.062638           0.654291           1.062638
        12.40601           0.667330           1.043075           0.667330           1.043075
